time_s,raw_ecg,filtered_ecg,diff_envelope,threshold,is_r_peak
780.916666666667,-0.19,-0.0568009806420437,0.00384065689830021,0.0322781422630964,0
780.919444444444,-0.195,-0.0507510305100767,0.00391312981392518,0.0322850596668778,0
780.922222222222,-0.21,-0.0437643780712691,0.00398208144678473,0.0322921692083379,0
780.925,-0.205,-0.036323064135045,0.00404848264622937,0.0322994051149425,0
780.927777777778,-0.18,-0.0289164663612224,0.00411386729924517,0.0323066773183281,0
780.930555555556,-0.19,-0.0219934942285964,0.00417994582852702,0.0323139093333295,0
780.933333333333,-0.195,-0.015919381027317,0.00424822081230808,0.0323210431723019,0
780.936111111111,-0.215,-0.0109413593942177,0.00431965335970097,0.0323281487500137,0
780.938888888889,-0.22,-0.00716661542257976,0.00439442190488673,0.032335234727859,0
780.941666666667,-0.205,-0.00455469192885016,0.004471803465119,0.0323423154908887,0
780.944444444444,-0.19,-0.00292507410187401,0.00455019243502001,0.0323494096466983,0
780.947222222222,-0.18,-0.00197918123640379,0.00462725531469992,0.032356538013949,0
780.95,-0.185,-0.0013345543466279,0.00470020322846372,0.0323637213779198,0
780.952777777778,-0.185,-0.000567811671033163,0.00469016212749964,0.032370978285718,0
780.955555555556,-0.2,0.000737937985766813,0.0046338029693371,0.032378222923027,0
780.958333333333,-0.185,0.00294599340111973,0.00458892479782094,0.032385437984699,0
780.961111111111,-0.18,0.00632403031435858,0.00455639822661235,0.0323926148003519,0
780.963888888889,-0.16,0.0110114228241877,0.00453584305613661,0.0323997324072838,0
780.966666666667,-0.175,0.0169992944464405,0.00452553942715781,0.0324068036750494,0
780.969444444444,-0.185,0.024125435773457,0.00452249762416853,0.0324138465265474,0
780.972222222222,-0.19,0.0320847672141772,0.00452268896728167,0.0324208826743804,0
780.975,-0.18,0.0404544905529588,0.004521421836436,0.0324279351029976,0
780.977777777778,-0.17,0.0487316115937974,0.00451382954647206,0.0324350260400739,0
780.980555555556,-0.165,0.0563792711327036,0.00449542244366709,0.0324421751211042,0
780.983333333333,-0.165,0.0628774158540588,0.00446264686443618,0.0324493982597256,0
780.986111111111,-0.195,0.067772865176389,0.00441338968223902,0.0324567063413289,0
780.988888888889,-0.21,0.0707238341183905,0.00441417568564983,0.0324641041912996,0
780.991666666667,-0.19,0.0715344592854068,0.00445072238077709,0.0324716424639289,0
780.994444444444,-0.165,0.0701758016923991,0.00448996151061018,0.0324794007615685,0
780.997222222222,-0.17,0.0667910800760501,0.00449736636876855,0.032487345101541,0
781,-0.17,0.0616844005091321,0.00444059377628533,0.0324954594237702,0
781.002777777778,-0.19,0.0552938480141211,0.00435526118519415,0.0325036707701105,0
781.005555555556,-0.2,0.0481513393182821,0.00428855488155099,0.0325119095537845,0
781.008333333333,-0.2,0.0408329538311486,0.00424837211222709,0.0325201154711882,0
781.011111111111,-0.2,0.0339044327482415,0.00424127710293484,0.0325282423595225,0
781.013888888889,-0.185,0.0278670663414865,0.00427180266763295,0.032536261966602,0
781.016666666667,-0.19,0.0231092211173415,0.00434190488929867,0.032544160200432,0
781.019444444444,-0.195,0.0198682831270477,0.0044506320486463,0.0325519205095736,0
781.022222222222,-0.2,0.0182068514310145,0.00459405056439941,0.0325595313568518,0
781.025,-0.185,0.0180056918877559,0.00476544727987773,0.0325669876591584,0
781.027777777778,-0.18,0.0189743788521396,0.00495580113255573,0.0325742912782055,0
781.030555555556,-0.17,0.0206788599006058,0.00515449058016087,0.0325814523216647,0
781.033333333333,-0.175,0.0225835373413603,0.00535017875346889,0.0325884889567798,0
781.036111111111,-0.2,0.024104027884753,0.00543809812782215,0.032595405038384,0
781.038888888889,-0.2,0.0246656781180925,0.00536241829266085,0.0326021729511921,0
781.041666666667,-0.2,0.0237622863464978,0.00523616809270538,0.0326087953042938,0
781.044444444444,-0.195,0.0210093766423203,0.00514613762431726,0.0326154120896555,0
781.047222222222,-0.19,0.0161868053304606,0.0050936585662705,0.0326219861317818,0
781.05,-0.19,0.00926641927291951,0.00507649984615026,0.0326284828463067,0
781.052777777778,-0.2,0.000421846455953902,0.0050890290227178,0.0326348720487319,0
781.055555555556,-0.215,-0.0099808413111336,0.00512270505334066,0.0326411299717873,0
781.058333333333,-0.215,-0.0214110499730534,0.00516686668557862,0.0326472409903385,0
781.061111111111,-0.215,-0.0332178464687997,0.00520975102293144,0.0326531989206959,0
781.063888888889,-0.19,-0.0446864959390263,0.00523965240468893,0.0326590073118554,0
781.066666666667,-0.19,-0.0551022069890185,0.00524611513776034,0.0326646796436296,0
781.069444444444,-0.215,-0.0638151699115689,0.00527118359468608,0.03267023940521,0
781.072222222222,-0.22,-0.0703007521045177,0.00533258868246445,0.0326757192848884,0
781.075,-0.215,-0.0742090715537702,0.00543120936296643,0.0326811634546544,0
781.077777777778,-0.19,-0.0753990779504415,0.00556371468104204,0.032686746572162,0
781.080555555556,-0.185,-0.0739536541822323,0.00572267604614147,0.0326926149780979,0
781.083333333333,-0.19,-0.0701739852704766,0.00583477569101643,0.0326987201580197,0
781.086111111111,-0.2,-0.0645533692579937,0.00582103812615965,0.0327049987983244,0
781.088888888889,-0.22,-0.0577325866543471,0.005658470355874,0.0327113934165338,0
781.091666666667,-0.2,-0.0504407194509814,0.00552489751174833,0.0327178601350875,0
781.094444444444,-0.175,-0.0434267481561633,0.0054345091065084,0.0327243747918761,0
781.097222222222,-0.18,-0.0373882155971175,0.00539886969524073,0.0327309745311346,0
781.1,-0.185,-0.0329036318235921,0.0054257436741876,0.0327378170346922,0
781.102777777778,-0.205,-0.0303750600565917,0.00551823260633429,0.0327449035045573,0
781.105555555556,-0.215,-0.0299864812542622,0.00567431695791889,0.032752228703362,0
781.108333333333,-0.21,-0.0316821534694924,0.00588685877885184,0.0327597824725519,0
781.111111111111,-0.195,-0.0351673820635314,0.00614408000447716,0.0327675501354731,0
781.113888888889,-0.19,-0.0399320592388431,0.00643048646259086,0.0327755137752974,0
781.116666666667,-0.2,-0.0452952040064286,0.00672816448256299,0.032783618024451,0
781.119444444444,-0.205,-0.0504667338276517,0.00701833936449925,0.0327917091603588,0
781.122222222222,-0.2,-0.0546210153006199,0.00718337222496063,0.0327996350969343,0
781.125,-0.195,-0.0569755356239509,0.00714647963665275,0.0328072820704194,0
781.127777777778,-0.18,-0.0568674296503751,0.00697520525915634,0.0328148314143873,0
781.130555555556,-0.17,-0.0538206560724785,0.00686293292821204,0.0328223988109591,0
781.133333333333,-0.195,-0.0475973470074707,0.00681043451012184,0.0328300379371161,0
781.136111111111,-0.21,-0.0382282021671457,0.00681260415518535,0.0328378190308092,0
781.138888888889,-0.215,-0.0260186481157665,0.00685886936592113,0.0328458312670303,0
781.141666666667,-0.2,-0.0115296725877663,0.00693413849765255,0.0328541837795565,0
781.144444444444,-0.165,0.00446542307841358,0.00702021081643448,0.0328630048216624,0
781.147222222222,-0.17,0.0210448469354613,0.00709752866375051,0.0328724386595988,0
781.15,-0.165,0.037217225401146,0.00704794275644088,0.0328826395632337,0
781.152777777778,-0.18,0.0520085948793923,0.00704254417263833,0.0328877463365082,0
781.155555555556,-0.195,0.0645495769078364,0.00709350635613787,0.0328859409899683,0
781.158333333333,-0.18,0.0741546548806591,0.00720731888977484,0.0328766644181476,0
781.161111111111,-0.17,0.0803860316022483,0.00738389128795928,0.0328596371009324,0
781.163888888889,-0.165,0.0830958154530755,0.00761626701464316,0.0328350554149286,0
781.166666666667,-0.18,0.0824421563879885,0.00789099734522243,0.0328033115477836,0
781.169444444444,-0.2,0.0788772713817265,0.00818170734850546,0.0327650675147332,0
781.172222222222,-0.205,0.0731078583029765,0.00827039000554775,0.0327213673004674,0
781.175,-0.185,0.0660309673013166,0.00811600130820089,0.0326736249247307,0
781.177777777778,-0.175,0.0586507436309334,0.00788938851783273,0.0326235908568125,0
781.180555555556,-0.175,0.0519833550371968,0.00773237955214145,0.0325731471663537,0
781.183333333333,-0.18,0.0469586860255203,0.00766145611478524,0.0325243716275243,0
781.186111111111,-0.195,0.0443278896510258,0.00768642540977875,0.0324759431891995,0
781.188888888889,-0.195,0.0445855705542769,0.00780927091450037,0.0324255116494902,0
781.191666666667,-0.2,0.0479142402180419,0.00802374052193649,0.0323707093722938,0
781.194444444444,-0.19,0.0541568207148403,0.00831574913944284,0.0323092515376276,0
781.197222222222,-0.175,0.0628205289578978,0.00866459725838953,0.0322390365314489,0
781.2,-0.18,0.0731126583264697,0.00904492732495756,0.032158236569324,0
781.202777777778,-0.19,0.0840058358732704,0.00942926320872725,0.0320653833916742,0
781.205555555556,-0.2,0.0943275357834004,0.00979091200081035,0.0319594321145745,0
781.208333333333,-0.2,0.102866231852184,0.0100618785526636,0.031840310319061,0
781.211111111111,-0.19,0.108484802484307,0.0100701223390482,0.0317094930169737,0
781.213888888889,-0.18,0.110230839326256,0.00988545804550064,0.0315688542338472,0
781.216666666667,-0.185,0.107433465406608,0.00976732599840026,0.0314201517464564,0
781.219444444444,-0.195,0.0997771713602757,0.00970189334234491,0.0312674101672797,0
781.222222222222,-0.2,0.0873449755156054,0.0096649662312118,0.031117609770387,0
781.225,-0.19,0.0706257702946139,0.00962371539844478,0.0309761738451443,0
781.227777777778,-0.175,0.050483826800639,0.00953949072342545,0.0308484061296125,0
781.230555555556,-0.165,0.0280918297193069,0.0097074295686679,0.0307391762514167,0
781.233333333333,-0.17,0.00483221033337652,0.00999753779523604,0.0306508096249025,0
781.236111111111,-0.195,-0.0178253671445217,0.0104413178119177,0.0305830717204801,0
781.238888888889,-0.2,-0.0384600170478173,0.0110587666407716,0.0305350782645435,0
781.241666666667,-0.2,-0.0558371343987274,0.0118543688862358,0.0305052274123728,0
781.244444444444,-0.18,-0.0690347332199645,0.0128140525987388,0.0304911556591379,0
781.247222222222,-0.165,-0.077546422288797,0.0139034751104396,0.0304890211348176,0
781.25,-0.15,-0.0813503771002122,0.0150679205763982,0.0304940621148581,0
781.252777777778,-0.17,-0.0809362285343424,0.0162339756896284,0.0305014273914538,0
781.255555555556,-0.185,-0.0772851668985936,0.0173130128086973,0.0305112681628819,0
781.258333333333,-0.19,-0.0718024902538156,0.0180134384109416,0.0305272059075115,0
781.261111111111,-0.17,-0.0662059878829389,0.0180909518454135,0.0305516513236405,0
781.263888888889,-0.165,-0.0623775930215061,0.0178712082873515,0.03058539862096,0
781.266666666667,-0.175,-0.0621893122225724,0.0181229835886378,0.0306316292845743,0
781.269444444444,-0.19,-0.0673172196378547,0.0189117622172692,0.030693480188414,0
781.272222222222,-0.195,-0.0790590278720958,0.0202755198543913,0.0307730644345738,0
781.275,-0.18,-0.0981712288526634,0.0222188099392864,0.0308714831668847,0
781.277777777778,-0.175,-0.124740953132482,0.0247087578230672,0.0309889090759385,0
781.280555555556,-0.155,-0.158105547619516,0.0276734099522253,0.0311247298475429,0
781.283333333333,-0.155,-0.196829552828905,0.0310027356962092,0.0312777394295208,0
781.286111111111,-0.185,-0.238744505578357,0.0345523986500568,0.0314463512731646,0
781.288888888889,-0.19,-0.281052120159941,0.038150215059677,0.0316288139515908,0
781.291666666667,-0.175,-0.32048628907574,0.0416050139498087,0.0318234104068586,0
781.294444444444,-0.15,-0.353524402370686,0.0446888599901646,0.0320267984644681,0
781.297222222222,-0.15,-0.37663411875542,0.0470115715483187,0.0322364654686746,0
781.3,-0.135,-0.386538302401437,0.0484910059334957,0.0324499701818466,0
781.302777777778,-0.155,-0.380478669740565,0.0490952782021987,0.0326642515996543,0
781.305555555556,-0.145,-0.35645798078227,0.0490829219818864,0.0328758785349648,0
781.308333333333,-0.135,-0.313441457057987,0.0501101481659611,0.0330813328407272,0
781.311111111111,-0.11,-0.251500488500113,0.0518297491982347,0.0332773064791824,0
781.313888888889,-0.07,-0.171885456652223,0.0540872720237267,0.0334628036673446,0
781.316666666667,-0.025,-0.0770193905446843,0.0567205855108462,0.0336391267241963,0
781.319444444444,0.02,0.0295901711041981,0.0595598352514319,0.0338074297064697,0
781.322222222222,0.11,0.143517735030642,0.0624406250690941,0.0339684604735177,0
781.325,0.225,0.259655559513458,0.0652163811611888,0.0341235245081631,0
781.327777777778,0.365,0.372503924461278,0.0677689094018087,0.0342717989073869,0
781.330555555556,0.555,0.47649704708651,0.0700163068359333,0.0344137972240443,0
781.333333333333,0.735,0.566342730822702,0.0719176076163546,0.0345543061712325,0
781.336111111111,0.92,0.637352427644919,0.0734738138024329,0.0346930155141288,0
781.338888888889,1.12,0.685738701459831,0.0747252605132002,0.0348259943919308,0
781.341666666667,1.31,0.708859099623095,0.0757455684015514,0.0349493532635641,1
781.344444444444,1.42,0.705389035150718,0.0762148136345984,0.0350594917023149,0
781.347222222222,1.415,0.67541119501362,0.0754235252503224,0.0351542705466016,0
781.35,1.255,0.620414857662402,0.0744675804682522,0.0352329716018201,0
781.352777777778,0.985,0.543204887488894,0.073319652924687,0.0352957505843559,0
781.355555555556,0.645,0.447726595381861,0.0719008479384466,0.0353435587553185,0
781.358333333333,0.345,0.338818628625057,0.0701641199087197,0.0353780218173922,0
781.361111111111,0.06,0.221911129425818,0.0681009109101681,0.0354012865486537,0
781.363888888889,-0.14,0.102690197545682,0.0657444376344815,0.0354158472525936,0
781.366666666667,-0.255,-0.0132480741817467,0.0631693082711269,0.0354243647866337,0
781.369444444444,-0.26,-0.120730214352943,0.060487455060604,0.0354294914645298,0
781.372222222222,-0.235,-0.215302105900961,0.0578406746103858,0.0354337123706385,0
781.375,-0.175,-0.293470198592178,0.0553903514054175,0.0354392100950488,0
781.377777777778,-0.145,-0.352871869589164,0.0533051769054852,0.0354433515642966,0
781.380555555556,-0.15,-0.392364981997363,0.0517478476340333,0.0354430618424773,0
781.383333333333,-0.18,-0.412032726416599,0.051039368470368,0.0354371728999765,0
781.386111111111,-0.22,-0.41310605223089,0.0511420095552425,0.0354301252198049,0
781.388888888889,-0.23,-0.397811927186643,0.0503905241010055,0.0354234566898214,0
781.391666666667,-0.24,-0.369160857392157,0.0487625738817074,0.0354171250836579,0
781.394444444444,-0.25,-0.33069117014524,0.0462877177030801,0.0354110543719613,0
781.397222222222,-0.24,-0.286190216899781,0.0430470537013903,0.0354051492748906,0
781.4,-0.25,-0.239413716208895,0.0394142126766453,0.0353992727582943,0
781.402777777778,-0.26,-0.193823877277362,0.0356991073875949,0.035393259912775,0
781.405555555556,-0.27,-0.152364804331829,0.032097128812534,0.0353869734591847,0
781.408333333333,-0.26,-0.117290182489174,0.0287815723692498,0.0353803116703474,0
781.411111111111,-0.25,-0.0900536929202692,0.0258947680068186,0.035373253777281,0
781.413888888889,-0.24,-0.0712673821281598,0.0235417734826128,0.0353659843152554,0
781.416666666667,-0.25,-0.0607277458039779,0.0217869075555293,0.0353585201628283,0
781.419444444444,-0.275,-0.0575040208611715,0.0206531879093649,0.0353508431202002,0
781.422222222222,-0.28,-0.0600785232781412,0.0201245315353622,0.0353429042310978,0
781.425,-0.275,-0.0665251792118796,0.0201503881072446,0.0353346322958463,0
781.427777777778,-0.255,-0.0747099411761046,0.0206523226033287,0.0353261004138505,0
781.430555555556,-0.245,-0.082495722167678,0.0204771848887114,0.0353174319178807,0
781.433333333333,-0.245,-0.0879348631609924,0.0196488769426464,0.0353087629579869,0
781.436111111111,-0.265,-0.0894338992190209,0.0183455967398426,0.0353002025029474,0
781.438888888889,-0.28,-0.0858783221798191,0.0169935919997681,0.0352918138061772,0
781.441666666667,-0.27,-0.076708876363042,0.0156874431846387,0.0352836076652156,0
781.444444444444,-0.27,-0.0619453231596744,0.014504014351276,0.0352755393000505,0
781.447222222222,-0.27,-0.0421581882874856,0.0134989192001559,0.0352675140966951,0
781.45,-0.255,-0.0183933746267937,0.0127049391801452,0.0352593983610444,0
781.452777777778,-0.275,0.00794167571925413,0.0121323526874207,0.0352510625322753,0
781.455555555556,-0.26,0.0352186565250503,0.0117709893453953,0.0352424563225582,0
781.458333333333,-0.255,0.0617424577832683,0.0115937018403134,0.0352335378426343,0
781.461111111111,-0.24,0.0859045353453904,0.0115608581586461,0.0352242792722705,0
781.463888888889,-0.235,0.106322120349216,0.0114963115991292,0.0352148929484913,0
781.466666666667,-0.245,0.121951546549943,0.0113836783848102,0.0352056431257973,0
781.469444444444,-0.26,0.132166677870289,0.0112696692842791,0.0351967522978663,0
781.472222222222,-0.255,0.136796817228888,0.0111942660448807,0.0351882662259778,0
781.475,-0.25,0.136122255863281,0.0111875831598529,0.03518020716966,0
781.477777777778,-0.24,0.130829440079983,0.011267913900614,0.0351725745689053,0
781.480555555556,-0.23,0.121931255027848,0.0111958208895575,0.0351653012559486,0
781.483333333333,-0.23,0.110660852263835,0.0109361373752051,0.0351582075146526,0
781.486111111111,-0.235,0.0983495387007836,0.0106065184840166,0.0351511220105878,0
781.488888888889,-0.25,0.0863003374384375,0.0102315542828492,0.0351438972321458,0
781.491666666667,-0.23,0.0756688561585452,0.00984078660000855,0.0351364911660382,0
781.494444444444,-0.225,0.0673620822851717,0.00946544805578441,0.0351289112332748,0
781.497222222222,-0.2,0.0619637836083661,0.00913526461158896,0.0351212777407518,0
781.5,-0.225,0.0596925254339112,0.00887561009021067,0.0351136808956053,0
781.502777777778,-0.225,0.0603951776248918,0.00870525064629715,0.0351061746657054,0
781.505555555556,-0.235,0.0635754703433806,0.00863484865265156,0.0350987766722057,0
781.508333333333,-0.215,0.0684539683922025,0.00866631596212197,0.0350914665790748,0
781.511111111111,-0.2,0.0740530554412231,0.0087930236628885,0.0350843254041498,0
781.513888888889,-0.185,0.0792983927687299,0.00900079683071054,0.0350774133904564,0
781.516666666667,-0.185,0.0831270203088313,0.00922303373017151,0.035070788319897,0
781.519444444444,-0.195,0.0845919000273927,0.00916386639539378,0.0350645076943332,0
781.522222222222,-0.205,0.0829532761268348,0.00886778228349669,0.0350586241366062,0
781.525,-0.185,0.0777486707679323,0.00856297693081005,0.035053183666586,0
781.527777777778,-0.175,0.068835497729599,0.00829247455050562,0.0350482217389182,0
781.530555555556,-0.16,0.0564029468712857,0.00807308853494339,0.0350437587974595,0
781.533333333333,-0.17,0.0409527143077378,0.00791572749465693,0.0350397703347573,0
781.536111111111,-0.165,0.0232510533836099,0.00782481532351379,0.0350361282421739,0
781.538888888889,-0.18,0.00425723324536204,0.00779834261488464,0.0350327627685059,0
781.541666666667,-0.165,-0.0149644204432679,0.00782850668177049,0.0350296535723752,0
781.544444444444,-0.15,-0.0333403476313718,0.00785438554164397,0.0350267846626147,0
781.547222222222,-0.13,-0.0498823258067401,0.0077515096920472,0.0350241464126724,0
781.55,-0.13,-0.0637719804493159,0.00763722222967174,0.0350217519217766,0
781.552777777778,-0.14,-0.0744275416747542,0.00752843988039011,0.0350196686324242,0
781.555555555556,-0.14,-0.0815469731247301,0.00744031240256566,0.0350179321556791,0
781.558333333333,-0.14,-0.0851239361994735,0.00738495047793661,0.0350165682992682,0
781.561111111111,-0.12,-0.0854356820065926,0.00737054363544354,0.0350155918905584,0
781.563888888889,-0.1,-0.0830046344704914,0.00734015834533723,0.03501500670671,0
781.566666666667,-0.105,-0.078537889936269,0.0072654643181168,0.0350148068415673,0
781.569444444444,-0.12,-0.0728508831252275,0.00715080441410125,0.0350149792234046,0
781.572222222222,-0.125,-0.0667828720136423,0.00700356679083768,0.0350154359823814,0
781.575,-0.11,-0.0611125511034201,0.0068331251498831,0.0350160956921153,0
781.577777777778,-0.115,-0.0564819609768598,0.00664966054600132,0.0350169233046788,0
781.580555555556,-0.08,-0.0533359448627151,0.00646299768948017,0.0350179497186104,0
781.583333333333,-0.1,-0.0518828057354037,0.00628158062465016,0.0350191964285466,0
781.586111111111,-0.105,-0.0520796988155864,0.00611169209434442,0.0350206598579594,0
781.588888888889,-0.095,-0.0536438604555198,0.00595699030796174,0.0350223532797335,0
781.591666666667,-0.08,-0.0560882593753731,0.00581839964933253,0.0350242391993524,0
781.594444444444,-0.055,-0.0587778998459709,0.00569435207904729,0.0350263394759057,0
781.597222222222,-0.04,-0.06100103157183,0.00558133774557807,0.0350286629538133,0
781.6,-0.035,-0.0620481128580923,0.00547469050056173,0.0350311952860214,0
781.602777777778,-0.045,-0.0612906623706173,0.00555837143346031,0.0350339221201002,0
781.605555555556,-0.055,-0.0582521838011074,0.00566627356306802,0.0350368286503141,0
781.608333333333,-0.04,-0.0526641479792251,0.00577951411308188,0.0350398974412909,0
781.611111111111,-0.03,-0.0445014881955551,0.00589846998185828,0.0350431098082307,0
781.613888888889,-0.025,-0.0339940632196901,0.00602087934446864,0.0350464460581576,0
781.616666666667,-0.03,-0.0216128758081337,0.00614176363995751,0.0350498858578323,0
781.619444444444,-0.035,-0.00803227850899939,0.00625368574945354,0.035053335190301,0
781.622222222222,-0.04,0.00592828029956022,0.00634732346518953,0.0350566492622677,0
781.625,-0.015,0.019377440108798,0.00641230323891845,0.0350597430114947,0
781.627777777778,-0.01,0.0314330664790683,0.00642463204405044,0.0350625874917051,0
781.630555555556,-0.01,0.041303592021397,0.00644716673464458,0.0350651701215035,0
781.633333333333,-0.025,0.0483617737085634,0.00652542338873137,0.0350675853299052,0
781.636111111111,-0.03,0.0522037894879318,0.00666369218264028,0.0350699528173579,0
781.638888888889,-0.04,0.0526879824572015,0.00686261848110197,0.0350723841378091,0
781.641666666667,-0.045,0.0499494895960234,0.0071188634237127,0.035074883350688,0
781.644444444444,-0.04,0.0443892803012988,0.00737288396603926,0.0350774350866968,0
781.647222222222,-0.055,0.0366385598166744,0.00750871618506579,0.0350800214430348,0
781.65,-0.075,0.0275018328111174,0.00749408237379342,0.0350826240805541,0
781.652777777778,-0.09,0.0178839501838316,0.00731161332990853,0.0350852278323401,0
781.655555555556,-0.105,0.00870798470443218,0.00696080710625713,0.0350878230972206,0
781.658333333333,-0.105,0.000831653402487061,0.00660941903562924,0.035090390934121,0
781.661111111111,-0.11,-0.00502985646800137,0.00629458573088434,0.0350928893565574,0
781.663888888889,-0.12,-0.00836740903345123,0.00602763285101843,0.0350953261327709,0
781.666666666667,-0.125,-0.00892183746246172,0.00581631701253753,0.0350977654493816,0
781.669444444444,-0.145,-0.00670416979529818,0.00566435294749342,0.0351002295080805,0
781.672222222222,-0.155,-0.00199032790692803,0.00557130453017991,0.0351027323804161,0
781.675,-0.16,0.00470910758702803,0.00553284543469803,0.0351052400960585,0
781.677777777778,-0.15,0.0127011019682761,0.00554135944278778,0.035107756815913,0
781.680555555556,-0.135,0.0211792865902498,0.00558681778500199,0.0351103346613532,0
781.683333333333,-0.165,0.0293033328051949,0.0055157909762164,0.0351130469575766,0
781.686111111111,-0.175,0.0362809457264742,0.00543077140525393,0.0351159628410397,0
781.688888888889,-0.185,0.0414446010214577,0.00534241860875531,0.0351190851699039,0
781.691666666667,-0.18,0.0443156585324658,0.00525949977315016,0.0351224055311724,0
781.694444444444,-0.185,0.0446497030224402,0.00518814666325916,0.035125904032814,0
781.697222222222,-0.185,0.0424587696590926,0.00513141445504261,0.0351295501083275,0
781.7,-0.185,0.0380083381975604,0.005089180028072,0.0351333043055172,0
781.702777777778,-0.2,0.0317894129051122,0.00505838244520077,0.0351371209355656,0
781.705555555556,-0.22,0.0244684124118203,0.00503357343923259,0.0351408950837706,0
781.708333333333,-0.2,0.0168197439278293,0.00502119617500917,0.0351445504587305,0
781.711111111111,-0.19,0.00964762248759227,0.00505578004517671,0.0351480587101397,0
781.713888888889,-0.17,0.00370475456940039,0.00510639050883279,0.0351514006029717,0
781.716666666667,-0.17,-0.000384167444570666,0.00517900396885171,0.0351545667512951,0
781.719444444444,-0.19,-0.00218665233805231,0.00527747681243241,0.0351575579030685,0
781.722222222222,-0.195,-0.00150793693165643,0.00540299518533117,0.0351604752456247,0
781.725,-0.19,0.00158670480515673,0.00555382907693807,0.0351634239770419,0
781.727777777778,-0.165,0.00677519419132101,0.00572541849393399,0.0351664891343512,0
781.730555555556,-0.16,0.0135072749643287,0.00591078419023528,0.0351696564988093,0
781.733333333333,-0.15,0.0210559174047755,0.00610122065397153,0.0351728891342672,0
781.736111111111,-0.16,0.0285866488458952,0.00628719841408802,0.0351761492963991,0
781.738888888889,-0.175,0.0352381817656926,0.00630828056675426,0.0351794031877651,0
781.741666666667,-0.165,0.0402065617329153,0.00615802423764962,0.0351826744774082,0
781.744444444444,-0.15,0.0428246531252878,0.00603570024046426,0.0351859872986458,0
781.747222222222,-0.145,0.0426291653587564,0.00594449676008855,0.0351893265343947,0
781.75,-0.16,0.0394085654567342,0.00588437614133372,0.0351926358429002,0
781.752777777778,-0.185,0.0332270201223377,0.00585201383612004,0.0351958428632394,0
781.755555555556,-0.185,0.024421794287833,0.00584109962503274,0.0351988955821106,0
781.758333333333,-0.17,0.0135740874427444,0.00584297999404091,0.0352017743861568,0
781.761111111111,-0.14,0.00145587000670672,0.00584758378177564,0.035204466913301,0
781.763888888889,-0.13,-0.0110423590648384,0.00585062599935936,0.0352069714816327,0
781.766666666667,-0.125,-0.0229960650789995,0.00587078149163825,0.0352093195556022,0
781.769444444444,-0.14,-0.0335353255667203,0.00591545875293245,0.0352116333112429,0
781.772222222222,-0.14,-0.0419290405260797,0.00598901908120246,0.0352140609629914,0
781.775,-0.145,-0.0476564400594321,0.00609206750784707,0.0352167590795961,0
781.777777777778,-0.135,-0.0504587558501008,0.00622110917574295,0.0352197037336431,0
781.780555555556,-0.13,-0.0503657579326032,0.00636862263418185,0.0352228519000294,0
781.783333333333,-0.135,-0.0476942285585305,0.00652356056511828,0.0352261440245764,0
781.786111111111,-0.135,-0.0430181289961342,0.00667224513826454,0.0352295082978738,0
781.788888888889,-0.14,-0.0371129584560331,0.00678610189796931,0.0352327967456467,0
781.791666666667,-0.13,-0.030879343866993,0.00669518953244439,0.0352358267989273,0
781.794444444444,-0.125,-0.0252529880703328,0.00665426864480716,0.0352385112262375,0
781.797222222222,-0.11,-0.0211095353551246,0.0066739572121649,0.0352408450668839,0
781.8,-0.13,-0.0191735406173359,0.00676071099530333,0.0352428427491348,0
781.802777777778,-0.15,-0.0199404803336597,0.00691595493514551,0.0352445363670662,0
781.805555555556,-0.16,-0.0236196313465605,0.00713566077873538,0.0352459720981157,0
781.808333333333,-0.155,-0.0301037613102566,0.00741043017396325,0.035247204973448,0
781.811111111111,-0.135,-0.0389690916030946,0.00772609470654092,0.0352483648264207,0
781.813888888889,-0.14,-0.0495061384162351,0.00806479389039188,0.0352495678622256,0
781.816666666667,-0.14,-0.0607790782263353,0.0084064438582304,0.0352508262379751,0
781.819444444444,-0.17,-0.0717085014408608,0.00873046825262017,0.0352520786762485,0
781.822222222222,-0.185,-0.0811700814052401,0.00901121921091368,0.0352533137415908,0
781.825,-0.185,-0.0881000254188541,0.00906115309970833,0.0352545580967151,0
781.827777777778,-0.17,-0.0915973592168236,0.00890835438388289,0.0352558234468713,0
781.830555555556,-0.165,-0.0910132179150239,0.00880889605956854,0.0352570748970355,0
781.833333333333,-0.16,-0.0860183783221071,0.0087790573919428,0.035258245442871,0
781.836111111111,-0.17,-0.0766421840342279,0.00881185236353558,0.0352591895144847,0
781.838888888889,-0.18,-0.063278617478125,0.0088945189614309,0.0352596866502294,0
781.841666666667,-0.165,-0.0466583257866639,0.00900968711677171,0.0352594934876793,0
781.844444444444,-0.16,-0.0277886272510127,0.00908412797528815,0.0352585061057155,0
781.847222222222,-0.14,-0.00786660877524346,0.00896596344192387,0.0352566536132096,0
781.85,-0.15,0.0118269231572301,0.00887718526106388,0.035253911579412,0
781.852777777778,-0.17,0.0300429144482672,0.00883483950464407,0.0352503143141128,0
781.855555555556,-0.175,0.0456781630489368,0.00885100675736446,0.0352459680580011,0
781.858333333333,-0.17,0.0578771862769088,0.00893145366371113,0.0352426013270158,0
781.861111111111,-0.15,0.0661119619849179,0.00907487602111738,0.0352400020817979,0
781.863888888889,-0.13,0.0702315741340357,0.00927282592043958,0.0352362211493863,0
781.866666666667,-0.145,0.0704765109374943,0.00951035091803838,0.0352332387119792,0
781.869444444444,-0.17,0.0674556318025094,0.00976730366518216,0.0352333233171943,0
781.872222222222,-0.165,0.0620873385746157,0.00997992681618062,0.0352389190267792,0
781.875,-0.16,0.0555099286017648,0.00985978584694288,0.0352524342181861,0
781.877777777778,-0.15,0.0489691445475926,0.00968719049665326,0.0352761155168259,0
781.880555555556,-0.15,0.0436932733049201,0.00958573587137819,0.0353119891295528,0
781.883333333333,-0.16,0.0407675486916196,0.00956900759213543,0.035361789756868,0
781.886111111111,-0.165,0.0410199282369562,0.00964323456011144,0.0354266667673078,0
781.888888888889,-0.175,0.0449294909557126,0.00980646220976932,0.0355070534363415,0
781.891666666667,-0.175,0.052566794312376,0.0100485521349217,0.0356025716789497,0
781.894444444444,-0.155,0.0635726914544078,0.0103520463863385,0.0357119813839201,0
781.897222222222,-0.145,0.0771785915485614,0.0106938493399178,0.0358328221402315,0
781.9,-0.16,0.0922672631278682,0.0110475949681321,0.0359617079991186,0
781.902777777778,-0.16,0.107469390172591,0.0113864908414823,0.0360949074903269,0
781.905555555556,-0.19,0.121287559116571,0.0116863700323749,0.0362287641714567,0
781.908333333333,-0.165,0.13223652258171,0.0119286448986779,0.0363656515352418,0
781.911111111111,-0.15,0.138986735262465,0.0118945107522586,0.0365088239836768,0
781.913888888889,-0.15,0.140497486747487,0.0117888980250002,0.0366610309437394,0
781.916666666667,-0.16,0.136126557618007,0.0117415622602634,0.0368243905537651,0
781.919444444444,-0.16,0.125705175194881,0.0117316028101467,0.0370003124943474,0
781.922222222222,-0.17,0.10957000360146,0.0117289626287528,0.0371894694081515,0
781.925,-0.155,0.0885477229945042,0.0116970081334428,0.0373916901017778,0
781.927777777778,-0.16,0.0638921026786567,0.011797914900057,0.0376061750884635,0
781.930555555556,-0.15,0.037177962916763,0.0120061152362735,0.0378317793981282,0
781.933333333333,-0.155,0.010160638334641,0.0123539775650961,0.0380671465049217,0
781.936111111111,-0.19,-0.0153868959198284,0.0128632635440012,0.0383107882791875,0
781.938888888889,-0.19,-0.0378445423660165,0.0135409840424926,0.0385612582320202,0
781.941666666667,-0.19,-0.0559072984011809,0.0143761840700101,0.0388173077965941,0
781.944444444444,-0.16,-0.0687234070861854,0.01533804725021,0.0390772447471907,0
781.947222222222,-0.155,-0.0759943150124289,0.0163756238406037,0.0393355942347947,0
781.95,-0.165,-0.0780253039012546,0.0174193669442951,0.0395906359916914,0
781.952777777778,-0.175,-0.0757197797638551,0.0183845179332913,0.0398420425089947,0
781.955555555556,-0.175,-0.0705151069683689,0.0191762252085513,0.0400890584661181,0
781.958333333333,-0.175,-0.0642631469675824,0.0193946795693894,0.040330603580759,0
781.961111111111,-0.17,-0.0590638409853342,0.0192408506204303,0.0405653816004568,0
781.963888888889,-0.155,-0.0570647967360229,0.0195351173966079,0.040791968762861,0
781.966666666667,-0.16,-0.0602434725131714,0.0203392623637183,0.0410091696166882,0
781.969444444444,-0.185,-0.0701908449822058,0.0216875797894604,0.0412163293820695,0
781.972222222222,-0.19,-0.0879161558747252,0.0235810396688542,0.0414132827137748,0
781.975,-0.17,-0.113691346405006,0.0259834305594275,0.0416004627009396,0
781.977777777778,-0.16,-0.146951140955409,0.028819934749013,0.0417789652649227,0
781.980555555556,-0.145,-0.186260613332724,0.0319784286673645,0.0419505614505604,0
781.983333333333,-0.145,-0.229356772603245,0.0353136091012784,0.0421179034821143,0
781.986111111111,-0.155,-0.273264662668639,0.0386538354394254,0.0422855279792027,0
781.988888888889,-0.15,-0.314482176140831,0.0418103656995805,0.0424517737149256,0
781.991666666667,-0.145,-0.349221767502476,0.04458846608586,0.042613077204278,0
781.994444444444,-0.13,-0.373692029970037,0.0466407046825297,0.0427658678649866,0
781.997222222222,-0.115,-0.384398135563823,0.0477566858502801,0.0429067825290406,0
782,-0.125,-0.378437792660511,0.0479258110920981,0.0430321326271087,0
782.002777777778,-0.115,-0.35376888455794,0.0482965299662367,0.043135723512744,0
782.005555555556,-0.115,-0.309426399904783,0.0496841355902864,0.0432177170729363,0
782.008333333333,-0.09,-0.245669574242415,0.0518590847058806,0.0432794967782424,0
782.011111111111,-0.02,-0.1640450979781,0.0545049947413815,0.043324454662489,0
782.013888888889,0.025,-0.0673584375693553,0.0574264271780848,0.0433576229732274,0
782.016666666667,0.08,0.0404477181830959,0.0604269242553121,0.0433829597061611,0
782.019444444444,0.165,0.154501688261477,0.0633245945192696,0.0434011934649473,0
782.022222222222,0.265,0.269284676880143,0.0659660923271199,0.043412765155105,0
782.025,0.415,0.378967349371413,0.0682378428430686,0.0434177816797991,0
782.027777777778,0.585,0.477777634842154,0.0700736020281346,0.0434160220249189,0
782.030555555556,0.79,0.560373534933083,0.0714577554786402,0.043403305307494,0
782.033333333333,0.965,0.622193978373906,0.0724241239266749,0.0433742426628236,0
782.036111111111,1.14,0.659762105034152,0.0730504257841425,0.0433251888548707,0
782.038888888889,1.29,0.670918697047662,0.0734489157467163,0.0432547778051619,1
782.041666666667,1.38,0.654968543715396,0.0733429837432002,0.0431628654635226,0
782.044444444444,1.365,0.612728936368643,0.0729888112630898,0.0430505433625152,0
782.047222222222,1.18,0.546476736239261,0.0724500894069009,0.042920207232004,0
782.05,0.91,0.4597979727407,0.0716124291309407,0.0427761769859629,0
782.052777777778,0.59,0.357351121183785,0.0703948596425934,0.0426232225329337,0
782.055555555556,0.275,0.244561515413914,0.0687591557043873,0.0424674587297877,0
782.058333333333,-0.005,0.127269283208744,0.0667153699319277,0.0423118561733655,0
782.061111111111,-0.21,0.0113563744037692,0.0643230770389119,0.0421516708439301,0
782.063888888889,-0.3,-0.0976205498292636,0.0616882027294045,0.0419837357103177,0
782.066666666667,-0.305,-0.194765456261574,0.0589556852603929,0.04180580643598,0
782.069444444444,-0.245,-0.276123419798425,0.0562985707752252,0.0416162270624437,0
782.072222222222,-0.205,-0.338887696153079,0.0539044445966068,0.0414140641854096,0
782.075,-0.16,-0.381520712487199,0.0519603246218384,0.0411990884736931,0
782.077777777778,-0.145,-0.403783026995626,0.0506924726081423,0.0409717042001535,0
782.080555555556,-0.14,-0.40667134179697,0.0504843321455925,0.0407338166794874,0
782.083333333333,-0.15,-0.392273435617599,0.0501856945558936,0.0404860154073248,0
782.086111111111,-0.165,-0.36355388479392,0.0489805728935645,0.0402289619417189,0
782.088888888889,-0.185,-0.324089207134399,0.0468790517362037,0.0399652804968217,0
782.091666666667,-0.19,-0.277774246032155,0.0439485854643564,0.0396963577488381,0
782.094444444444,-0.175,-0.228522999831386,0.0405215690834534,0.0394232270838483,0
782.097222222222,-0.185,-0.179986631480263,0.0369220862174052,0.0391483174482423,0
782.1,-0.2,-0.135309155299343,0.0333513424387251,0.0388771862470526,0
782.102777777778,-0.225,-0.0969375216563888,0.0299927203307117,0.0386104993857639,0
782.105555555556,-0.255,-0.066497855766457,0.0270017912121335,0.0383490292068092,0
782.108333333333,-0.25,-0.0447438903655803,0.0244987720776441,0.0380938937260166,0
782.111111111111,-0.23,-0.0315776494545824,0.0225638043967117,0.0378464244953607,0
782.113888888889,-0.22,-0.0261366852820442,0.0212352138829074,0.0376080027251605,0
782.116666666667,-0.235,-0.0269371035451016,0.0205106907913022,0.0373800002554775,0
782.119444444444,-0.255,-0.0320576221446686,0.0203511251171327,0.0371636404912006,0
782.122222222222,-0.255,-0.039347285375667,0.020686654978728,0.0369595197184845,0
782.125,-0.26,-0.046638364514877,0.020431392399995,0.0367674953511492,0
782.127777777778,-0.245,-0.0519464510807929,0.0194832597962975,0.0365866895024827,0
782.130555555556,-0.23,-0.0536416926957831,0.0182687101937976,0.0364154591506501,0
782.133333333333,-0.245,-0.0505783161850531,0.0169818654470367,0.0362514265926599,0
782.136111111111,-0.25,-0.0421737135305807,0.0157218225353275,0.0360907803838564,0
782.138888888889,-0.26,-0.028433050907133,0.0145709740894943,0.035929874478314,0
782.141666666667,-0.245,-0.00992018323454913,0.0135907598644501,0.0357724659014453,0
782.144444444444,-0.235,0.0123197965597185,0.0128194239576794,0.0356224169128852,0
782.147222222222,-0.225,0.0368771480918345,0.0122717921065779,0.0354835064082492,0
782.15,-0.215,0.0621210488816475,0.0119409250476495,0.0353592738375416,0
782.152777777778,-0.23,0.0863562003359755,0.0118013662501729,0.0352514631929079,0
782.155555555556,-0.25,0.107978047013544,0.0118135951747307,0.0351604300015838,0
782.158333333333,-0.235,0.125612956971056,0.011874026221478,0.0350856522482236,0
782.161111111111,-0.225,0.138231637758665,0.0117067787906087,0.0350258314711261,0
782.163888888889,-0.21,0.145226929154777,0.0115378636805078,0.0349790339013953,0
782.166666666667,-0.215,0.146450634471229,0.0114107824349543,0.0349428869730215,0
782.169444444444,-0.23,0.142207895284204,0.0113589676319863,0.0349148954042813,0
782.172222222222,-0.24,0.133211431838026,0.0114033788458478,0.0348923437442163,0
782.175,-0.235,0.120501430076826,0.0113401685680084,0.0348725742856791,0
782.177777777778,-0.215,0.105339666654864,0.011094318188484,0.034853140691784,0
782.180555555556,-0.22,0.0890884030002274,0.0107683151704486,0.0348319314451663,0
782.183333333333,-0.225,0.0730855106536231,0.0103891017284044,0.0348119472842274,0
782.186111111111,-0.24,0.058527168445634,0.00998972064220022,0.0347960714391078,0
782.188888888889,-0.255,0.0463683477536819,0.00960573239968515,0.0347863840411319,0
782.191666666667,-0.235,0.0372493119695046,0.00927159640488012,0.0347830615485325,0
782.194444444444,-0.23,0.0314537089847903,0.00901734503567386,0.0347821103994608,0
782.197222222222,-0.21,0.0289007903660621,0.00886583464422793,0.0347805319628823,0
782.2,-0.205,0.0291711334704197,0.00883079065125113,0.0347784276504066,0
782.202777777778,-0.22,0.0315622585084922,0.00891578161776032,0.034776034245824,0
782.205555555556,-0.23,0.0351679815266502,0.00911416749235625,0.0347735651413368,0
782.208333333333,-0.225,0.0389734388064949,0.00940997829463478,0.0347711606688192,0
782.211111111111,-0.2,0.0419566056234673,0.0094869963138416,0.0347689295211597,0
782.213888888889,-0.195,0.0431868840768564,0.00928102265332181,0.0347669419219782,0
782.216666666667,-0.2,0.0419119424285922,0.00885331818407518,0.0347651347077656,0
782.219444444444,-0.21,0.0376253673281706,0.00844385339947022,0.0347634340542586,0
782.222222222222,-0.195,0.0301096894748678,0.00808127744172913,0.0347618056345538,0
782.225,-0.17,0.0194517611805222,0.00778910349447546,0.0347602512075817,0
782.227777777778,-0.135,0.0060300686813433,0.00758394664719516,0.0347588044199734,0
782.230555555556,-0.125,-0.0095238882591238,0.00747444248350597,0.0347575314025508,0
782.233333333333,-0.125,-0.0263857500064704,0.00746090932685321,0.0347564323637749,0
782.236111111111,-0.14,-0.0436137953321068,0.00753574782301011,0.034755420281038,0
782.238888888889,-0.135,-0.0602324294932916,0.00768450620194338,0.0347544099192758,0
782.241666666667,-0.13,-0.0753158483096671,0.00786883944539285,0.0347533209723463,0
782.244444444444,-0.115,-0.0880643300690612,0.00793815423087598,0.0347520853263044,0
782.247222222222,-0.1,-0.0978665486515906,0.00793084135686448,0.034750653136375,0
782.25,-0.11,-0.104342810395614,0.00789378369207552,0.0347489983574226,0
782.252777777778,-0.12,-0.107366037686718,0.00787726896210675,0.0347472485123792,0
782.255555555556,-0.115,-0.107059465533671,0.00792973579405569,0.034745562597037,0
782.258333333333,-0.11,-0.103772180865253,0.00800491750205071,0.0347440763365496,0
782.261111111111,-0.1,-0.0980356199851078,0.00801376637400539,0.0347428662338626,0
782.263888888889,-0.1,-0.0905057721088598,0.00795804834442752,0.0347419965569343,0
782.266666666667,-0.095,-0.0818969784719994,0.00784491425069391,0.0347415142794511,0
782.269444444444,-0.125,-0.072913778527034,0.0076858782561659,0.0347414111043814,0
782.272222222222,-0.115,-0.0641872042857866,0.00749547789296463,0.0347414550251948,0
782.275,-0.09,-0.056221284912522,0.00728975966307736,0.0347414417762056,0
782.277777777778,-0.075,-0.0493543733047291,0.00708474224942189,0.0347413300467218,0
782.280555555556,-0.06,-0.043738366140337,0.00689500281259805,0.034741107196701,0
782.283333333333,-0.055,-0.0393371123232537,0.0067325118522607,0.0347407734260048,0
782.286111111111,-0.07,-0.0359434626514292,0.00660581116789787,0.0347403913099345,0
782.288888888889,-0.07,-0.0332126776504644,0.00651959096760477,0.0347400287660013,0
782.291666666667,-0.07,-0.0307084380025862,0.00647468013134964,0.034739746182157,0
782.294444444444,-0.05,-0.0279566214226778,0.00646842221075558,0.0347395925332335,0
782.297222222222,-0.025,-0.0245014102425582,0.00647422999601086,0.0347395666677704,0
782.3,-0.035,-0.0199582178554508,0.00642137704072536,0.0347395712995362,0
782.302777777778,-0.035,-0.0140583628599063,0.00635074762838364,0.0347395936744525,0
782.305555555556,-0.05,-0.00668132328383549,0.00627024571140227,0.0347396332385102,0
782.308333333333,-0.035,0.00212832537403135,0.0061866258314805,0.0347397012327652,0
782.311111111111,-0.025,0.0121606717816616,0.00610477502471439,0.0347398181925208,0
782.313888888889,-0.015,0.0230567048622774,0.00602727398520728,0.034739952591652,0
782.316666666667,-0.025,0.0343392451919052,0.0059542750574237,0.0347400233641211,0
782.319444444444,-0.045,0.0454554356851985,0.00588369947515318,0.0347399963719691,0
782.322222222222,-0.06,0.055826616651791,0.00581172177511891,0.0347398391623937,0
782.325,-0.05,0.0649007785646628,0.00573347892913238,0.0347395237282473,0
782.327777777778,-0.035,0.0722026113386926,0.00564391842880124,0.0347390285009999,0
782.330555555556,-0.035,0.0773764588313165,0.00556082131955416,0.034738339379096,0
782.333333333333,-0.055,0.0802182064251936,0.00551185420980351,0.0347374524937031,0
782.336111111111,-0.065,0.0806932043506438,0.00546496871457506,0.0347363743575818,0
782.338888888889,-0.08,0.0789386553855053,0.00538677037815711,0.034735156042305,0
782.341666666667,-0.075,0.0752503474632698,0.0052460366307736,0.0347339036341768,0
782.344444444444,-0.065,0.0700550551794815,0.00506820618487779,0.034732608537216,0
782.347222222222,-0.055,0.0638712380603525,0.00489446300134736,0.034731257451204,0
782.35,-0.08,0.0572617115116043,0.00473545661610865,0.0347298321020636,0
782.352777777778,-0.1,0.0507826674160631,0.00460221824057773,0.0347283097942112,0
782.355555555556,-0.125,0.0449337169485225,0.00450512144655869,0.0347268050768606,0
782.358333333333,-0.13,0.0401134972265745,0.00445284732078624,0.0347253124329676,0
782.361111111111,-0.125,0.0365848433631762,0.00445145957143829,0.034723817206118,0
782.363888888889,-0.11,0.0344526320797024,0.00450368628056295,0.0347223106849567,0
782.366666666667,-0.12,0.0336562369174809,0.00460848650563296,0.0347208436170489,0
782.369444444444,-0.135,0.0339772057502802,0.00476095348265671,0.034719511537012,0
782.372222222222,-0.15,0.0350613992153896,0.00495257428861826,0.0347183990061049,0
782.375,-0.145,0.036453536433673,0.00517183153268616,0.0347174869398636,0
782.377777777778,-0.135,0.0376409958576722,0.00540509925791299,0.0347167259258176,0
782.380555555556,-0.135,0.0381029095706577,0.00551675259680043,0.0347160441687199,0
782.383333333333,-0.155,0.0373601375060916,0.00548004601443096,0.0347154142411717,0
782.386111111111,-0.175,0.0350216502524035,0.00531149738065873,0.0347148439901412,0
782.388888888889,-0.185,0.0308231867664591,0.00515997922928366,0.0347143486582175,0
782.391666666667,-0.18,0.0246547532492256,0.00505349983972672,0.0347139501252267,0
782.394444444444,-0.165,0.0165745271951618,0.00499475589894976,0.0347137332247686,0
782.397222222222,-0.165,0.00680793651293507,0.00498209176365575,0.0347137930933383,0
782.4,-0.17,-0.00426800924926762,0.00500965355299917,0.0347140621050484,0
782.402777777778,-0.19,-0.0161537647804752,0.00506792837182143,0.0347144230554784,0
782.405555555556,-0.19,-0.0282671332203775,0.00514462423037674,0.0347147387028394,0
782.408333333333,-0.185,-0.0399905083280959,0.00522581393525947,0.0347148658348854,0
782.411111111111,-0.18,-0.0507213591936047,0.0052751049091766,0.0347147818301128,0
782.413888888889,-0.185,-0.0599215668654512,0.00524875908989718,0.0347144886793624,0
782.416666666667,-0.19,-0.0671613288224792,0.00523428425781077,0.034713997532234,0
782.419444444444,-0.205,-0.0721538246153535,0.00526135557575225,0.0347133289650981,0
782.422222222222,-0.195,-0.0747776416488744,0.00533344299491444,0.0347125174507832,0
782.425,-0.205,-0.0750850235532679,0.00539827104110494,0.0347116985668386,0
782.427777777778,-0.17,-0.073295232824016,0.00539146611135363,0.0347109131476279,0
782.430555555556,-0.16,-0.069773608572419,0.00528518972021685,0.0347101895609788,0
782.433333333333,-0.165,-0.0649981387594095,0.0050859744662624,0.0347095431852329,0
782.436111111111,-0.18,-0.0595164482153951,0.00488579868463696,0.0347088716842231,0
782.438888888889,-0.19,-0.0538969366024882,0.00470043417795536,0.0347081462080774,0
782.441666666667,-0.185,-0.0486783129932441,0.00454502644151057,0.0347073444747708,0
782.444444444444,-0.175,-0.0443219218116664,0.00443272523368681,0.034706451314066,0
782.447222222222,-0.165,-0.0411710252078458,0.00437349024839544,0.0347054585785477,0
782.45,-0.145,-0.0394206181314496,0.00437318523578703,0.0347043639612157,0
782.452777777778,-0.155,-0.0391004534254434,0.00443304810541599,0.0347031704689657,0
782.455555555556,-0.155,-0.0400728205132208,0.00454959015927356,0.034701967020303,0
782.458333333333,-0.15,-0.042045348157523,0.00471493772406627,0.0347008440924692,0
782.461111111111,-0.135,-0.0445977970262121,0.00491758772772541,0.0346997981357202,0
782.463888888889,-0.12,-0.0472205824303026,0.00514350907345472,0.0346988454727171,0
782.466666666667,-0.135,-0.0493617267212026,0.00537748776443296,0.0346979753900595,0
782.469444444444,-0.155,-0.0504781748641803,0.00548115506901314,0.0346971793961015,0
782.472222222222,-0.16,-0.0500869837116257,0.00544529104830962,0.0346964517156357,0
782.475,-0.14,-0.0478118553246997,0.00529263660557005,0.0346957905158104,0
782.477777777778,-0.13,-0.0434208353362394,0.00515251247607166,0.0346951967878924,0
782.480555555556,-0.13,-0.0368517139309356,0.00505062783408091,0.0346947456098502,0
782.483333333333,-0.125,-0.0282226934266171,0.00498395260190897,0.0346945192015414,0
782.486111111111,-0.135,-0.0178271395601645,0.00494509694098975,0.0346945233345725,0
782.488888888889,-0.135,-0.00611260981808995,0.00492311385034987,0.0346947506768709,0
782.491666666667,-0.13,0.00635426426665863,0.00490469005311188,0.0346950698490231,0
782.494444444444,-0.115,0.0189341915003748,0.00491168311330717,0.0346953411247002,0
782.497222222222,-0.125,0.0309690328363914,0.00496489916928434,0.0346955693787298,0
782.5,-0.125,0.0418383787353808,0.0050534402223503,0.0346957599425201,0
782.502777777778,-0.145,0.0510139147950517,0.0051847600624999,0.0346959174886658,0
782.505555555556,-0.145,0.058106678737814,0.0053614923120632,0.0346960617365642,0
782.508333333333,-0.145,0.0629028212998911,0.00558080737263524,0.0346962346507403,0
782.511111111111,-0.11,0.0653843889510862,0.00583430109507267,0.0346964474530171,0
782.513888888889,-0.115,0.0657328799246481,0.00608147082547519,0.0346966989356391,0
782.516666666667,-0.12,0.0643147891360869,0.0062017259372008,0.0346969801088237,0
782.519444444444,-0.145,0.0616499321409119,0.00615878174959169,0.0346972923180786,0
782.522222222222,-0.155,0.0583648902646541,0.0059372836382134,0.0346976411315683,0
782.525,-0.135,0.0551353132497338,0.00577409908180007,0.0346980357387368,0
782.527777777778,-0.135,0.0526219262744694,0.00568596851416345,0.0346984877121167,0
782.530555555556,-0.125,0.0514058093179752,0.00568464714453772,0.0346990070320182,0
782.533333333333,-0.135,0.0519287727696449,0.00577549941534879,0.0346995990031167,0
782.536111111111,-0.15,0.0544444054807603,0.00595664833736975,0.0347002633773551,0
782.538888888889,-0.155,0.0589846236639754,0.00621879656068152,0.0347009940115285,0
782.541666666667,-0.145,0.0653453478970027,0.00654577770777816,0.034701848505108,0
782.544444444444,-0.145,0.0730933685384289,0.00691582934494436,0.0347026750269992,0
782.547222222222,-0.145,0.0815946495859182,0.00730350875416251,0.0347034983516606,0
782.55,-0.145,0.0900624156795812,0.00768210570717008,0.0347043492739495,0
782.552777777778,-0.15,0.097621529013809,0.00802634907556649,0.0347052630558667,0
782.555555555556,-0.165,0.103384055640778,0.00831516213406309,0.0347062772509865,0
782.558333333333,-0.165,0.106529694188574,0.00843640017870373,0.034707429062565,0
782.561111111111,-0.15,0.10638401801324,0.00839631779303497,0.0347087519247349,0
782.563888888889,-0.13,0.102487349644908,0.00832340053675514,0.0347102793565009,0
782.566666666667,-0.145,0.0946475822399174,0.00830618434974585,0.0347120424343076,0
782.569444444444,-0.15,0.0829713722169892,0.008319674924357,0.0347140376864362,0
782.572222222222,-0.16,0.0678697822787195,0.00833065129134343,0.0347162432121247,0
782.575,-0.16,0.0500365363063954,0.00836094560107988,0.0347186165613384,0
782.577777777778,-0.15,0.0303993964943378,0.00847326300309622,0.0347209766687362,0
782.580555555556,-0.14,0.0100475973295456,0.00870621091414074,0.0347231649345975,0
782.583333333333,-0.15,-0.00985943620794485,0.00909183052967529,0.0347252149915711,0
782.586111111111,-0.165,-0.0281949030180336,0.00965126796929953,0.0347271749791827,0
782.588888888889,-0.175,-0.0439703572173303,0.0103909335375219,0.0347291553842017,0
782.591666666667,-0.165,-0.0564349825520211,0.0112995357568947,0.0347312025065027,0
782.594444444444,-0.145,-0.0651590522219846,0.0123463342821529,0.0347333168051755,0
782.597222222222,-0.135,-0.0700930463051243,0.0134808812621695,0.0347354381681731,0
782.6,-0.13,-0.0715955141159054,0.0146344183886387,0.0347373893221491,0
782.602777777778,-0.145,-0.0704250726717628,0.0157129268600648,0.0347391550738089,0
782.605555555556,-0.14,-0.0676947650801117,0.0163732825757514,0.0347407332667533,0
782.608333333333,-0.125,-0.0647901514411241,0.0165033287154713,0.0347421342193488,0
782.611111111111,-0.12,-0.0632557198420234,0.01618721126791,0.0347433814547281,0
782.613888888889,-0.105,-0.0646572182760499,0.0163115904625605,0.0347445091134956,0
782.616666666667,-0.12,-0.0704300556456392,0.0169443555346744,0.0347455568811672,0
782.619444444444,-0.135,-0.0817257632491455,0.0181282975168231,0.0347465580138518,0
782.622222222222,-0.14,-0.0992694563326749,0.0198751756749597,0.0347475348803794,0
782.625,-0.125,-0.123241162723204,0.0221614800767869,0.0347485345105001,0
782.627777777778,-0.1,-0.153192745249141,0.0249263357365218,0.0347493831499296,0
782.630555555556,-0.105,-0.188009975704617,0.0280718634344676,0.034749995811093,0
782.633333333333,-0.1,-0.225926246271332,0.0314661507827936,0.0347503645478231,0
782.636111111111,-0.105,-0.264590635318782,0.0349488051823697,0.0347504891336916,0
782.638888888889,-0.125,-0.301188850534185,0.0383388708063005,0.0347503756860568,0
782.641666666667,-0.11,-0.332611272380876,0.0414447085880554,0.034750034647763,0
782.644444444444,-0.105,-0.355658256504119,0.0439945553006425,0.0347494773970256,0
782.647222222222,-0.09,-0.367269361960987,0.0457830920267647,0.0347487714712003,0
782.65,-0.085,-0.364760557917336,0.0467519065347906,0.0347479970642552,0
782.652777777778,-0.1,-0.346051971334204,0.0468890707629757,0.034747190513261,0
782.655555555556,-0.075,-0.309868538270576,0.0475491352456842,0.0347463056958299,0
782.658333333333,-0.03,-0.255897080976205,0.0489291277816677,0.0347452800685777,0
782.661111111111,0.01,-0.184885815225452,0.0509154190724364,0.0347440286018559,0
782.663888888889,0.075,-0.0986759540349732,0.0533671803803271,0.0347422968019267,0
782.666666666667,0.135,-0.000159673092570891,0.0561273820708124,0.0347399790441991,0
782.669444444444,0.2,0.106836084347152,0.0590347982226653,0.0347370674468676,0
782.672222222222,0.295,0.217735042783299,0.0619360680320744,0.0347336257112063,0
782.675,0.425,0.327456090040968,0.0646968546950118,0.034729736767526,0
782.677777777778,0.57,0.4307019872181,0.0672112103365516,0.0347254579508733,0
782.680555555556,0.75,0.522273750699773,0.06940839691982,0.0347208449222302,0
782.683333333333,0.905,0.597389746808942,0.0712566173050376,0.0347159247358631,0
782.686111111111,1.055,0.651987619458137,0.0727633617527706,0.0347107418834265,0
782.688888888889,1.23,0.682987853829875,0.0739723530491788,0.0347053534648299,0
782.691666666667,1.355,0.688500048046344,0.0747843344571606,0.0346998215404836,1
782.694444444444,1.42,0.66795667961377,0.0743501069149005,0.0346942030997077,0
782.697222222222,1.36,0.62216405870066,0.0735174792721618,0.0346885394007421,0
782.7,1.155,0.55326590366486,0.0726036752664464,0.0346828524940301,0
782.702777777778,0.885,0.464621132652502,0.071516704030083,0.0346771271334864,0
782.705555555556,0.585,0.360603577237898,0.0701876552960743,0.0346712985636536,0
782.708333333333,0.3,0.246336926308226,0.0685792257820278,0.0346652469537384,0
782.711111111111,0.055,0.127382871379886,0.0666915023626751,0.0346586676649436,0
782.713888888889,-0.145,0.00940378758798624,0.0645644582261799,0.0346514058920111,0
782.716666666667,-0.275,-0.102176915064118,0.0622768889566287,0.0346438985120723,0
782.719444444444,-0.3,-0.202493541194303,0.0599418120235888,0.0346346535335942,0
782.722222222222,-0.26,-0.287514354212304,0.0576986509930652,0.0346194723698679,0
782.725,-0.215,-0.354256927319806,0.0557028000511562,0.034595893395185,0
782.727777777778,-0.175,-0.40092878037251,0.0541133920338496,0.0345616193626432,0
782.730555555556,-0.15,-0.426985045247632,0.0530802546612814,0.0345146934421086,0
782.733333333333,-0.165,-0.433101033105222,0.0530492369723852,0.0344536992025581,0
782.736111111111,-0.19,-0.421063801681015,0.0526202038887833,0.0343779324642279,0
782.738888888889,-0.225,-0.393592660552391,0.0513616069450832,0.0342873600639038,0
782.741666666667,-0.22,-0.354103560656177,0.0492709398451497,0.0341827754044429,0
782.744444444444,-0.215,-0.306436112751951,0.0463970918157146,0.0340658270985633,0
782.747222222222,-0.22,-0.254564287716898,0.0428389708595261,0.0339397007091762,0
782.75,-0.225,-0.202312509438402,0.0390571866582928,0.0338085135892279,0
782.752777777778,-0.255,-0.153097830960616,0.0353128335808855,0.0336764312507489,0
782.755555555556,-0.255,-0.109716292519933,0.0317919392097304,0.0335425202210709,0
782.758333333333,-0.26,-0.0741876264009553,0.0286528847109434,0.0334022419807966,0
782.761111111111,-0.24,-0.0476675328044678,0.0260188078005599,0.03325221559708,0
782.763888888889,-0.22,-0.0304312140106591,0.0239727529383048,0.0330904873027578,0
782.766666666667,-0.225,-0.0219261738633553,0.0225557430155682,0.0329158822940846,0
782.769444444444,-0.235,-0.0208869232960975,0.0217677349619132,0.032728016530193,0
782.772222222222,-0.255,-0.0254996045345762,0.0215712214115506,0.0325273003589259,0
782.775,-0.24,-0.0336010135426971,0.021897066137673,0.0323148147624503,0
782.777777777778,-0.225,-0.0428943230885038,0.0218218703799168,0.032092138729926,0
782.780555555556,-0.23,-0.0511631322262336,0.0210025926787468,0.031861143268395,0
782.783333333333,-0.235,-0.0564663103849713,0.019722381091101,0.0316237713976688,0
782.786111111111,-0.24,-0.0572983580701096,0.0183506147105566,0.0313818242902525,0
782.788888888889,-0.26,-0.0527034489762026,0.0169909087474705,0.031136770214662,0
782.791666666667,-0.255,-0.0423356332926745,0.0157307889193925,0.0308895938372456,0
782.794444444444,-0.255,-0.0264624862642741,0.0146371249430356,0.0306425257297245,0
782.797222222222,-0.24,-0.00591436407699138,0.0137535366556662,0.0303966738617149,0
782.8,-0.24,0.0180140316520728,0.0130998166837241,0.0301529243138694,0
782.802777777778,-0.255,0.0436992536646746,0.0126732557721257,0.0299127082993013,0
782.805555555556,-0.25,0.0693485390128141,0.0124516168712644,0.0296777896388965,0
782.808333333333,-0.25,0.0931681585095232,0.0123973919702966,0.0294500273506395,0
782.811111111111,-0.24,0.11352553042413,0.0124628989327279,0.0292312147033228,0
782.813888888889,-0.205,0.129091015339271,0.0123300593134156,0.0290228893536941,0
782.816666666667,-0.225,0.138947569788549,0.0121816622209798,0.0288260217323668,0
782.819444444444,-0.25,0.142659657583242,0.0120640680080413,0.0286409892884341,0
782.822222222222,-0.26,0.140296693728757,0.0120143412406381,0.0284673734717918,0
782.825,-0.25,0.132410470860319,0.0120575393260234,0.0283038986010978,0
782.827777777778,-0.24,0.119970118754763,0.0122053150352169,0.0281484407331936,0
782.830555555556,-0.22,0.10426181549053,0.0121389663008241,0.0279978622450344,0
782.833333333333,-0.25,0.086763392327091,0.0117997495272061,0.0278473244383553,0
782.836111111111,-0.25,0.0690059142201229,0.0113959885927383,0.0276971165579186,0
782.838888888889,-0.245,0.0524351272874661,0.0109588358375471,0.027555785401304,0
782.841666666667,-0.25,0.0382853001273306,0.0105229878264084,0.0274284506116171,0
782.844444444444,-0.24,0.0274765094585003,0.0101230937313826,0.0273186648644292,0
782.847222222222,-0.235,0.020543991439264,0.0097903819573292,0.0272275222772663,0
782.85,-0.255,0.017605038961496,0.00954979890385163,0.0271537846639673,0
782.852777777778,-0.265,0.0183653712399174,0.00941789120928747,0.0270949257283829,0
782.855555555556,-0.275,0.0221632645674005,0.00940158324764412,0.0270501898071657,0
782.858333333333,-0.265,0.028046341937989,0.0094979128287135,0.0270199673048378,0
782.861111111111,-0.25,0.0348730748210262,0.00969469822138967,0.0270043632628225,0
782.863888888889,-0.235,0.0414289974559381,0.00980906371529834,0.0270032630030601,0
782.866666666667,-0.245,0.0465465407076884,0.0095975457377866,0.027016382972251,0
782.869444444444,-0.26,0.0492173365042033,0.00923872088140904,0.0270432942434243,0
782.872222222222,-0.255,0.0486868072555983,0.0088823435147272,0.0270834243827195,0
782.875,-0.24,0.0445227273267622,0.00855506499126488,0.0271360426802283,0
782.877777777778,-0.235,0.0366520350400264,0.0082789993873574,0.0272046395482254,0
782.880555555556,-0.225,0.0253632316339819,0.00806997524920855,0.0272924425607463,0
782.883333333333,-0.235,0.0112749383771296,0.00793645178571153,0.0273999913642697,0
782.886111111111,-0.25,-0.00472570552346126,0.00787916907112486,0.0275214017784166,0
782.888888888889,-0.245,-0.0215684164693209,0.00789153099751719,0.0276526618162868,0
782.891666666667,-0.225,-0.0381004652415667,0.00796065204020345,0.0277907459354223,0
782.894444444444,-0.2,-0.0531930192690507,0.00801650370321141,0.0279324350783815,0
782.897222222222,-0.185,-0.065843131569341,0.00788939825444582,0.0280737612230071,0
782.9,-0.185,-0.0752619957516431,0.00776447040857463,0.0282169806120805,0
782.902777777778,-0.2,-0.0809415589294798,0.0076612846294772,0.0283651791846682,0
782.905555555556,-0.19,-0.0826937604500778,0.00759613343688813,0.0285210063357907,0
782.908333333333,-0.19,-0.0806593291794717,0.00758059250129142,0.0286865635201292,0
782.911111111111,-0.17,-0.0752859695490117,0.00762059274148163,0.0288632865958513,0
782.913888888889,-0.155,-0.0672786235659799,0.00767948809769775,0.0290517992805563,0
782.916666666667,-0.16,-0.0575270479723286,0.00753747973992502,0.0292523095192819,0
782.919444444444,-0.165,-0.0470179610459885,0.00735336556536158,0.0294645416357197,0
782.922222222222,-0.15,-0.0367403143272666,0.00714474737323979,0.0296878278711482,0
782.925,-0.145,-0.0275927223814496,0.00692820678369092,0.0299212231905122,0
782.927777777778,-0.105,-0.0203017084968359,0.00672075585554081,0.0301634771083346,0
782.930555555556,-0.09,-0.0153582457811662,0.0065381439747241,0.0304132699364997,0
782.933333333333,-0.1,-0.012978215275514,0.00639334478258805,0.0306694755658533,0
782.936111111111,-0.11,-0.013090050588795,0.00629536326684743,0.0309283343063757,0
782.938888888889,-0.11,-0.0153502204291188,0.00624846818254942,0.0311844211782012,0
782.941666666667,-0.1,-0.0191845657183306,0.00625191116046957,0.0314346440928904,0
782.944444444444,-0.07,-0.0238511037681594,0.00630014557695374,0.0316788565943885,0
782.947222222222,-0.065,-0.0285179598876053,0.0063835101714479,0.0319166208880672,0
782.95,-0.065,-0.0323487626496363,0.00634899341532115,0.0321472832952009,0
782.952777777778,-0.08,-0.034587257228509,0.00623518768520998,0.0323700753781189,0
782.955555555556,-0.085,-0.0346330947819356,0.00612799360672163,0.0325842365115462,0
782.958333333333,-0.08,-0.0321017135575395,0.00604078920753864,0.032789149894661,0
782.961111111111,-0.065,-0.0268628377230269,0.00598438015940928,0.0329844777370911,0
782.963888888889,-0.06,-0.0190542215630918,0.00596595119388364,0.033170066563711,0
782.966666666667,-0.065,-0.00906965457885415,0.00598838529210145,0.0333462351480642,0
782.969444444444,-0.065,0.00247731182332105,0.00605000803394843,0.0335139313996821,0
782.972222222222,-0.07,0.0148101840236212,0.00614477290440944,0.0336748853043819,0
782.975,-0.075,0.0270612740946273,0.00626286133700333,0.0338314249906097,0
782.977777777778,-0.05,0.0383514289502755,0.00638392001438547,0.0339875821230358,0
782.980555555556,-0.06,0.0478701394922618,0.0063532422163264,0.0341413841763138,0
782.983333333333,-0.06,0.0549485007481393,0.00624615790265962,0.0342895197850937,0
782.986111111111,-0.07,0.0591182755090682,0.00617065025765997,0.0344286350851754,0
782.988888888889,-0.08,0.0601517208519983,0.00613788086622837,0.0345555264169607,0
782.991666666667,-0.075,0.0580787273947622,0.0061557036631825,0.0346673421858733,0
782.994444444444,-0.05,0.0531800096878926,0.00622797586978231,0.0347624540319429,0
782.997222222222,-0.055,0.0459573616705479,0.00635423965501082,0.0348409496081428,0
783,-0.055,0.0370841371399593,0.00635521606049449,0.0349037657338258,0
783.002777777778,-0.085,0.0273409304214809,0.00621026022137262,0.0349525758577507,0
783.005555555556,-0.105,0.0175427496273474,0.00596465354393487,0.0349896398952789,0
783.008333333333,-0.09,0.00846467622917126,0.00570334030894036,0.035017628069094,0
783.011111111111,-0.08,0.000773032270132264,0.00544074776881552,0.0350393664698039,0
783.013888888889,-0.095,-0.00503156278074279,0.00519099360653876,0.0350576241346469,0
783.016666666667,-0.105,-0.00865409973810572,0.0049667799331422,0.0350750137721748,0
783.019444444444,-0.12,-0.0100246134347165,0.0047784618495599,0.0350938538348206,0
783.022222222222,-0.135,-0.00929571324184109,0.00463336847950419,0.0351138519112849,0
783.025,-0.135,-0.00681889689700232,0.004535427571677,0.0351316995262299,0
783.027777777778,-0.145,-0.00310235312907277,0.00448511393935505,0.0351445314487825,0
783.030555555556,-0.145,0.00124531074462812,0.00447971024087386,0.0351507713214082,0
783.033333333333,-0.165,0.00557969931489526,0.00444558147607029,0.0351504514249142,0
783.036111111111,-0.175,0.00928718663994863,0.00437922029142615,0.0351440161894547,0
783.038888888889,-0.195,0.011846883623371,0.00428898931404773,0.0351357342194154,0
783.041666666667,-0.185,0.0128820401233494,0.00418342306941199,0.0351281718019802,0
783.044444444444,-0.18,0.0121960176091089,0.00407039762370897,0.035121179058351,0
783.047222222222,-0.165,0.00978953443971217,0.00395644182621952,0.0351146042828531,0
783.05,-0.175,0.00585775170115742,0.00384625383043914,0.035108291157504,0
783.052777777778,-0.18,0.000767750206883309,0.00374246307728809,0.0351020574530735,0
783.055555555556,-0.195,-0.00498114333562254,0.00364565100864464,0.0350957865153212,0
783.058333333333,-0.19,-0.0108100737673841,0.0035546162147454,0.0350895972102589,0
783.061111111111,-0.18,-0.0161210765777547,0.00354786995721917,0.0350835085590162,0
783.063888888889,-0.17,-0.0203591515066439,0.00363559238236824,0.0350775087332473,0
783.066666666667,-0.185,-0.0230698309302362,0.00372649400313654,0.0350715588256786,0
783.069444444444,-0.2,-0.0239465690172118,0.00382314642513392,0.0350655989966782,0
783.072222222222,-0.2,-0.0228633097392791,0.00392688131475763,0.0350595570177377,0
783.075,-0.175,-0.0198890663870897,0.00403736504138045,0.0350534743097643,0
783.077777777778,-0.18,-0.0152831167137191,0.00415238123949404,0.0350475841538944,0
783.080555555556,-0.17,-0.00947131327756688,0.0042678491158349,0.0350419258179583,0
783.083333333333,-0.175,-0.00300584448447623,0.00437807992250215,0.0350365297517366,0
783.086111111111,-0.19,0.00348761818246331,0.00442893651455411,0.0350314219390217,0
783.088888888889,-0.2,0.00937023970300834,0.00435015204558964,0.0350265793915975,0
783.091666666667,-0.195,0.0140519518206669,0.00429782599363466,0.0350219318930719,0
783.094444444444,-0.175,0.017048996880882,0.00427801471721249,0.0350173686922521,0
783.097222222222,-0.17,0.0180315248151669,0.00429503969393543,0.0350127850339645,0
783.1,-0.175,0.0168566525868167,0.00435090132725283,0.0350081008088553,0
783.102777777778,-0.185,0.0135838020646183,0.00444488827575906,0.0350032452075312,0
783.105555555556,-0.2,0.00847083871749902,0.00457342866113822,0.0349981638621153,0
783.108333333333,-0.19,0.00195137471164533,0.00473020618760479,0.0349928250870583,0
783.111111111111,-0.18,-0.00540460096114319,0.00490653836761756,0.034987337921403,0
783.113888888889,-0.17,-0.012943017603472,0.00501728069618638,0.0349819882756006,0
783.116666666667,-0.185,-0.0199859746738194,0.00499532987965764,0.0349769501598088,0
783.119444444444,-0.215,-0.0258942400711268,0.00484711245700861,0.0349722412308501,0
783.122222222222,-0.22,-0.0301260899644556,0.00470199069816481,0.0349678609276958,0
783.125,-0.21,-0.0322869536482029,0.00459000447087094,0.0349637922245446,0
783.127777777778,-0.185,-0.0321652200787757,0.00451748384803645,0.0349600028816936,0
783.130555555556,-0.185,-0.0297508928469155,0.0044877355000117,0.0349564492145576,0
783.133333333333,-0.18,-0.0252354183688842,0.00450077108873619,0.0349529911171373,0
783.136111111111,-0.19,-0.018992800501413,0.00455332151844981,0.0349494777721467,0
783.138888888889,-0.195,-0.0115438827034472,0.00463913762024972,0.0349457909249191,0
783.141666666667,-0.185,-0.00350725838639563,0.00466852560411363,0.034942096725152,0
783.144444444444,-0.17,0.00445848771848919,0.00456750727870048,0.0349384452544179,0
783.147222222222,-0.16,0.0117157154096119,0.0044395813373367,0.0349348550277188,0
783.15,-0.175,0.0177060867169579,0.00431924243553908,0.0349313327272903,0
783.152777777778,-0.19,0.0220008735233863,0.00421613474096237,0.0349278721776687,0
783.155555555556,-0.195,0.0243385431962424,0.0041379050841363,0.0349244553655653,0
783.158333333333,-0.185,0.0246461876127911,0.00408956848086208,0.0349210553426971,0
783.161111111111,-0.175,0.023042915183109,0.00407311963655826,0.0349178458216709,0
783.163888888889,-0.155,0.0198250469815407,0.00408742389703044,0.0349148420866017,0
783.166666666667,-0.16,0.0154346823768013,0.00412839512202801,0.0349120038732455,0
783.169444444444,-0.17,0.0104147629489741,0.00418104598382306,0.0349093431964072,0
783.172222222222,-0.175,0.00535501875830534,0.00410835247211478,0.0349068815233575,0
783.175,-0.16,0.000834011236395271,0.00403344558264502,0.0349046317698859,0
783.177777777778,-0.145,-0.00263718365008722,0.00396585366752296,0.0349025607094536,0
783.180555555556,-0.155,-0.00466430741049065,0.00391429164715714,0.0349005820617889,0
783.183333333333,-0.155,-0.00500762649570782,0.00388584077457004,0.0348985871868006,0
783.186111111111,-0.17,-0.0036045154481381,0.00388529118882662,0.0348964742743083,0
783.188888888889,-0.165,-0.000574879594415532,0.0039147064118896,0.0348942143905573,0
783.191666666667,-0.155,0.00379097293564834,0.00397324761630607,0.0348917983608886,0
783.194444444444,-0.145,0.00906072953002121,0.00405727082889584,0.0348892382558124,0
783.197222222222,-0.15,0.0147019251054161,0.00416068458853902,0.0348866457019768,0
783.2,-0.15,0.020133174017913,0.00427553136894746,0.0348840545177811,0
783.202777777778,-0.175,0.0247798474649348,0.00428216506600558,0.0348814857990175,0
783.205555555556,-0.185,0.0281288766736116,0.00417195458842616,0.034878955638932,0
783.208333333333,-0.18,0.0297774852350952,0.00407750759585727,0.0348764761102876,0
783.211111111111,-0.145,0.0294712698427749,0.00400622129104519,0.034874055796513,0
783.213888888889,-0.145,0.0271280951593667,0.00396346804795919,0.0348716995791995,0
783.216666666667,-0.16,0.0228456428304352,0.00395214092957307,0.0348694101963049,0
783.219444444444,-0.17,0.0168920236230782,0.0039724364350689,0.0348671897783679,0
783.222222222222,-0.165,0.00968047461105253,0.00402189092316612,0.0348649502415134,0
783.225,-0.165,0.00173066649272694,0.00409566291073789,0.0348627181531546,0
783.227777777778,-0.15,-0.00637960266722205,0.0040902639839552,0.0348604552929742,0
783.230555555556,-0.145,-0.0140676689026459,0.00398924287125631,0.0348581288352581,0
783.233333333333,-0.155,-0.0207991288741775,0.0038869695820389,0.0348557184640598,0
783.236111111111,-0.175,-0.0261357975766858,0.00379152185492681,0.0348531989815094,0
783.238888888889,-0.19,-0.0297739986250792,0.00370992047801012,0.0348505403020868,0
783.241666666667,-0.19,-0.031569648269447,0.0036475158016991,0.0348477088838555,0
783.244444444444,-0.18,-0.0315478839176822,0.0036075500568407,0.0348448228601515,0
783.247222222222,-0.175,-0.0298964820974406,0.0035909336982725,0.0348420551234448,0
783.25,-0.18,-0.0269438655091638,0.00359625257071647,0.0348396065336002,0
783.252777777778,-0.19,-0.0231239653679888,0.00359888162891244,0.0348375157840222,0
783.255555555556,-0.185,-0.0189314442792762,0.00356187606488651,0.0348357984026953,0
783.258333333333,-0.185,-0.0148716797334147,0.00351786675532932,0.0348344588638981,0
783.261111111111,-0.175,-0.011410375818192,0.00347352334742904,0.0348334893783083,0
783.263888888889,-0.165,-0.00892766909339323,0.00343524066989708,0.0348328687331639,0
783.266666666667,-0.18,-0.00768112692252162,0.00340849726811253,0.0348325422241119,0
783.269444444444,-0.205,-0.0077811505079764,0.00339732611950189,0.0348323662095292,0
783.272222222222,-0.21,-0.00918107765073538,0.00340394895234503,0.0348321747272421,0
783.275,-0.205,-0.0116828501588576,0.00342860835035668,0.03483179839903,0
783.277777777778,-0.2,-0.0149576058036686,0.00346961130045938,0.034831253648567,0
783.280555555556,-0.19,-0.0185791191031457,0.00352357609320849,0.0348307466468355,0
783.283333333333,-0.19,-0.0220667859492739,0.00358585369074732,0.0348303445143864,0
783.286111111111,-0.2,-0.024933940759473,0.00364957592423545,0.0348301081422922,0
783.288888888889,-0.2,-0.0267367966218316,0.00359838707435792,0.034830088786786,0
783.291666666667,-0.185,-0.027119254701835,0.0035431579308979,0.0348303252921066,0
783.294444444444,-0.18,-0.0258492413751787,0.00349927722992224,0.0348308431632484,0
783.297222222222,-0.17,-0.0228430590234058,0.00346911885552256,0.0348316518522774,0
783.3,-0.175,-0.0181753986451569,0.00345329529062695,0.0348327462130425,0
783.302777777778,-0.2,-0.0120740472815579,0.00345059929807639,0.034834108177582,0
783.305555555556,-0.205,-0.00489979781498423,0.00345815400518288,0.0348357096605963,0
783.308333333333,-0.2,0.002886508035256,0.00347175754469624,0.0348375972444254,0
783.311111111111,-0.18,0.0107666364231308,0.00347948947466461,0.0348396352225814,0
783.313888888889,-0.17,0.0182132189370002,0.0034690629566094,0.0348416845739601,0
783.316666666667,-0.19,0.024738973192487,0.00346762208898197,0.0348436955885414,0
783.319444444444,-0.205,0.0299421532306046,0.00347887169661466,0.0348456810404631,0
783.322222222222,-0.215,0.0335438532035984,0.00350490627266981,0.0348476348792487,0
783.325,-0.205,0.035413562326519,0.00354583383173495,0.034849529233876,0
783.327777777778,-0.195,0.0355804875003123,0.00359960294857356,0.0348513580371757,0
783.330555555556,-0.175,0.0342295160723761,0.00366205949752041,0.0348531688363639,0
783.333333333333,-0.165,0.0316821562594952,0.00372723670879721,0.0348551969331689,0
783.336111111111,-0.18,0.0283642280283732,0.00370027117196792,0.0348577197321328,0
783.338888888889,-0.185,0.0247633468644846,0.0036521175165064,0.0348608527994615,0
783.341666666667,-0.175,0.0213802267332279,0.00362419782683833,0.0348647094233822,0
783.344444444444,-0.165,0.0186784335023411,0.00362331550157712,0.0348693889658408,0
783.347222222222,-0.17,0.0170373886855819,0.00365454187756593,0.0348749647675376,0
783.35,-0.17,0.0167131391310446,0.00372057308793893,0.0348814722231847,0
783.352777777778,-0.19,0.0178106972502026,0.00382128309741321,0.0348888971133438,0
783.355555555556,-0.19,0.0202706845971294,0.00395352619594286,0.0348971604286578,0
783.358333333333,-0.185,0.0238716788632884,0.0041112199036352,0.0349045662415115,0
783.361111111111,-0.165,0.0282481948683647,0.00428571319688464,0.0349113977530391,0
783.363888888889,-0.15,0.032922760927382,0.00446641761390957,0.0349197194605882,0
783.366666666667,-0.155,0.0373492201259009,0.00464165272408781,0.0349275598374449,0
783.369444444444,-0.175,0.0409633159077179,0.00479963517524068,0.0349326386920689,0
783.372222222222,-0.175,0.0432359131147487,0.00483635384672133,0.0349324813533978,0
783.375,-0.165,0.0437239258733556,0.00475357824190931,0.0349245598001831,0
783.377777777778,-0.15,0.0421141995299668,0.00470372839186878,0.0349064530664942,0
783.380555555556,-0.165,0.0382562101520921,0.00469952935238377,0.0348760179302432,0
783.383333333333,-0.165,0.0321804462210681,0.00473974089903763,0.034831554816101,0
783.386111111111,-0.185,0.0241006318508189,0.00481925634903466,0.0347719604916019,0
783.388888888889,-0.195,0.0143994208997618,0.0049294204130142,0.0346968603846406,0
783.391666666667,-0.18,0.00359870223713275,0.00505867810478302,0.0346068634146445,0
783.394444444444,-0.18,-0.00768293013409659,0.00511781339929155,0.0345032211662583,0
783.397222222222,-0.175,-0.0187818019126611,0.0050742102852549,0.0343883801255316,0
783.4,-0.18,-0.0290452874550124,0.0049708598066257,0.0342656922607636,0
783.402777777778,-0.185,-0.0378874155217295,0.00490245132683171,0.034138765141541,0
783.405555555556,-0.2,-0.0448389428398188,0.00487839890041482,0.0340112587491828,0
783.408333333333,-0.19,-0.0495873590970455,0.00490435960056946,0.0338808156681598,0
783.411111111111,-0.185,-0.0520031719979204,0.00498160891288415,0.0337442087344807,0
783.413888888889,-0.165,-0.0521500392712528,0.00510678540816484,0.033598724192305,0
783.416666666667,-0.175,-0.0502777566913062,0.00527203724727773,0.0334422905662017,0
783.419444444444,-0.185,-0.0467986476724827,0.00535455215637925,0.0332737157760553,0
783.422222222222,-0.195,-0.0422493926882644,0.00529545764959816,0.0330924687513267,0
783.425,-0.195,-0.0372416514074635,0.0050917204445503,0.0328985496966964,0
783.427777777778,-0.17,-0.0324058487352978,0.00490836006497421,0.0326925501851747,0
783.430555555556,-0.175,-0.0283331261194648,0.00476152316333737,0.0324755305378385,0
783.433333333333,-0.17,-0.0255206444595592,0.00466496544123578,0.0322488662787807,0
783.436111111111,-0.185,-0.0243251474196952,0.00462883635781432,0.0320140788871283,0
783.438888888889,-0.19,-0.0249289778056071,0.00465875720030326,0.0317726643401816,0
783.441666666667,-0.17,-0.0273216478966579,0.00475527982040209,0.0315259345596034,0
783.444444444444,-0.145,-0.0312986935895853,0.00491378091616167,0.0312757503513445,0
783.447222222222,-0.165,-0.0364780130925888,0.00512480869516645,0.0310277782387271,0
783.45,-0.175,-0.0423323389315319,0.00537485841162331,0.0307837703687526,0
783.452777777778,-0.18,-0.0482350545017026,0.00564751422682568,0.0305440551343289,0
783.455555555556,-0.19,-0.0535153705945833,0.00592486065857522,0.0303093590156555,0
783.458333333333,-0.175,-0.0575180293019161,0.00605991782074421,0.0300807080384299,0
783.461111111111,-0.17,-0.0596622779831393,0.00605476112317307,0.0298592918826797,0
783.463888888889,-0.17,-0.059494892998503,0.0059332292787867,0.0296463046132989,0
783.466666666667,-0.175,-0.0567325296359604,0.00579253937358402,0.029442772081486,0
783.469444444444,-0.19,-0.0512895888323717,0.00570730021714429,0.0292493781964575,0
783.472222222222,-0.185,-0.0432890441106889,0.00567608822348474,0.0290663142479647,0
783.475,-0.17,-0.033055155158682,0.00569228085880192,0.0288933622473095,0
783.477777777778,-0.145,-0.0210885789479381,0.00574469838796117,0.0287294697645995,0
783.480555555556,-0.135,-0.00802593742272074,0.00577703740203207,0.0285727881538127,0
783.483333333333,-0.14,0.0054127224210241,0.00569821011186,0.0284207962395584,0
783.486111111111,-0.15,0.018484055330252,0.0056316814487943,0.0282689890432498,0
783.488888888889,-0.16,0.0304839133647279,0.00559331310565253,0.0281190869216546,0
783.491666666667,-0.16,0.0408067449064712,0.00559607070452673,0.0279747354222203,0
783.494444444444,-0.135,0.0489966587005402,0.00564865424253514,0.027839602563233,0
783.497222222222,-0.14,0.0547855989833876,0.00575450844060384,0.0277171491317901,0
783.5,-0.135,0.0581151637726482,0.00591131607493912,0.0276104089063265,0
783.502777777778,-0.145,0.0591399952696616,0.00611103482546247,0.0275204203434313,0
783.505555555556,-0.155,0.0582122612397383,0.00632894491717516,0.0274469812013729,0
783.508333333333,-0.14,0.0558483941043249,0.00638042149307446,0.027389053372704,0
783.511111111111,-0.12,0.0526808193046188,0.00623985556268379,0.0273448863918508,0
783.513888888889,-0.12,0.049398751220515,0.00603261180890219,0.0273121803200692,0
783.516666666667,-0.12,0.0466831458350326,0.00587207060490735,0.0272882706963355,0
783.519444444444,-0.145,0.0451414840410646,0.00577423929260714,0.0272703210387741,0
783.522222222222,-0.14,0.0452481627171253,0.00575036687303308,0.0272555101524973,0
783.525,-0.13,0.0472958771811475,0.0058057323220588,0.0272412019701042,0
783.527777777778,-0.135,0.0513625147330397,0.00593898671875108,0.0272251503111781,0
783.530555555556,-0.12,0.0572968109393345,0.00614213907724657,0.0272092260574013,0
783.533333333333,-0.12,0.0647244491117491,0.00640121820151573,0.0271966624610726,0
783.536111111111,-0.135,0.0730745369486221,0.00669757944335902,0.027189429851955,0
783.538888888889,-0.15,0.081624617051678,0.00700976144823154,0.0271878578155379,0
783.541666666667,-0.145,0.0895607094980784,0.0073157396124772,0.0271918221540362,0
783.544444444444,-0.145,0.0960474871423828,0.0075953756241887,0.0272008212231196,0
783.547222222222,-0.145,0.100302671206005,0.00776884932141295,0.0272140728005745,0
783.55,-0.135,0.101669200028264,0.00779169346133538,0.0272306208392077,0
783.552777777778,-0.175,0.0996787241662476,0.00770617078097104,0.0272494439471611,0
783.555555555556,-0.17,0.094100530130091,0.00761857666209246,0.0272683378456699,0
783.558333333333,-0.15,0.0849710619760532,0.00755972655808146,0.0272872521751126,0
783.561111111111,-0.125,0.0726007206184835,0.00750818250308752,0.0273065669753619,0
783.563888888889,-0.125,0.057556462752993,0.0075897787537813,0.0273263454030938,0
783.566666666667,-0.125,0.0406207523396889,0.00773258747384954,0.0273463518627276,0
783.569444444444,-0.135,0.0227294759088438,0.00797110024537995,0.0273664909394112,0
783.572222222222,-0.14,0.00489334976329501,0.00833606489071536,0.0273867168148259,0
783.575,-0.14,-0.0118910400442295,0.00885051538974192,0.0274070350706486,0
783.577777777778,-0.13,-0.0267332584683799,0.0095260199883217,0.0274275007788706,0
783.580555555556,-0.125,-0.0389361900207647,0.0103595048046163,0.0274472292068707,0
783.583333333333,-0.125,-0.0480704658574118,0.0113309914413202,0.0274670376076161,0
783.586111111111,-0.125,-0.0540289371068382,0.0124025385196549,0.0274876991565285,0
783.588888888889,-0.13,-0.0570552843000021,0.0135186008182732,0.0275079929818849,0
783.591666666667,-0.13,-0.0577427013691422,0.0146079203615827,0.0275277360419659,0
783.594444444444,-0.115,-0.0570008627325173,0.0154496738221129,0.027546764510756,0
783.597222222222,-0.105,-0.0559919103633536,0.0158426930719719,0.0275649500470918,0
783.6,-0.125,-0.0560387945624973,0.0156969978225183,0.0275822171767799,0
783.602777777778,-0.15,-0.0585117645086774,0.0155940650851437,0.0275985578832199,0
783.605555555556,-0.15,-0.0647009318546786,0.015946881286853,0.0276140411007174,0
783.608333333333,-0.16,-0.0756844397809527,0.0168108040346647,0.0276288115055901,0
783.611111111111,-0.135,-0.0922027107019744,0.0182155230010336,0.0276432267869745,0
783.613888888889,-0.13,-0.114549413346159,0.020160017868199,0.027657873877989,0
783.616666666667,-0.14,-0.142489134541846,0.0226092117561091,0.0276726120593526,0
783.619444444444,-0.14,-0.175210274317445,0.0254926978974304,0.0276868137966438,0
783.622222222222,-0.125,-0.211319479228259,0.0287057909111379,0.0277047574377751,0
783.625,-0.12,-0.248881122144268,0.0321130016583192,0.0277293278477466,0
783.627777777778,-0.105,-0.285502112867823,0.0355538664515069,0.0277630307595864,0
783.630555555556,-0.1,-0.318458908446058,0.0388508890841923,0.0278081690610072,0
783.633333333333,-0.11,-0.344860234663448,0.0418191903112883,0.0278666633665999,0
783.636111111111,-0.12,-0.361835986945517,0.0442261552064199,0.0279398861328435,0
783.638888888889,-0.12,-0.3667402928654,0.0459378042822852,0.0280285176702488,0
783.641666666667,-0.11,-0.357355000891692,0.0469012388482766,0.0281324362973864,0
783.644444444444,-0.09,-0.332079073176632,0.0469418942712345,0.0282491257945507,0
783.647222222222,-0.065,-0.290089603076789,0.0474578259291543,0.0283750817435012,0
783.65,-0.05,-0.231461476621246,0.0486367653644325,0.0285063221534403,0
783.652777777778,-0.015,-0.157234999327901,0.0503841966704192,0.0286388964569741,0
783.655555555556,0.035,-0.0694239867709842,0.0525826430726582,0.0287692567844288,0
783.658333333333,0.115,0.0290393297514846,0.0551005487519933,0.028901797248096,0
783.661111111111,0.215,0.134421958701388,0.0578019480463724,0.0290410610608038,0
783.663888888889,0.335,0.242365346206292,0.0605561894962595,0.0291913235622648,0
783.666666666667,0.45,0.348108896458162,0.0632469736355609,0.0293540065977413,0
783.669444444444,0.59,0.446748899999202,0.0657800121905498,0.0295295716441799,0
783.672222222222,0.775,0.533517052654127,0.0680887196945624,0.0297178463943202,0
783.675,0.94,0.604060873249567,0.0701374993678651,0.0299180239981838,0
783.677777777778,1.12,0.654707648818824,0.0719223724618045,0.0301288128220962,0
783.680555555556,1.295,0.68269413543172,0.0734689100087345,0.0303486185642911,0
783.683333333333,1.405,0.686346112643679,0.07418038034028,0.0305757412817263,1
783.686111111111,1.405,0.665194927218002,0.0736768940043359,0.030808569901103,0
783.688888888889,1.3,0.620022175668662,0.0724776024252242,0.0310457559809993,0
783.691666666667,1.075,0.552828396874025,0.0712393434589803,0.0312863521699762,0
783.694444444444,0.8,0.466726748564909,0.0698913919140205,0.0315299037029506,0
783.697222222222,0.53,0.365767762668505,0.0683803028037566,0.0317726196185756,0
783.7,0.27,0.254706043355912,0.0666771289877665,0.0320118665453862,0
783.702777777778,0.03,0.138723836398371,0.0647825614282852,0.0322465529683565,0
783.705555555556,-0.13,0.0231294534426229,0.0627295054570158,0.0324752927812257,0
783.708333333333,-0.19,-0.0869496553756109,0.0605828089338133,0.0326965979739291,0
783.711111111111,-0.17,-0.186858968570212,0.0584360876226617,0.0329090062650328,0
783.713888888889,-0.115,-0.272674905313379,0.0564058314046397,0.0331112675120857,0
783.716666666667,-0.1,-0.341411977319691,0.0546232029053592,0.0333025177377772,0
783.719444444444,-0.135,-0.391165872100543,0.053224139012709,0.0334824284388927,0
783.722222222222,-0.15,-0.421183803689072,0.0523385188811458,0.0336513171502458,0
783.725,-0.165,-0.431858627661753,0.0523459212082973,0.033810209505904,0
783.727777777778,-0.155,-0.42464861335615,0.0518929786857935,0.0339608450209789,0
783.730555555556,-0.145,-0.401929996921679,0.0506775012918231,0.0341056205197637,0
783.733333333333,-0.17,-0.366794114432169,0.0486907589453979,0.0342473875684647,0
783.736111111111,-0.195,-0.322804686072905,0.0459687790831541,0.0343892251299363,0
783.738888888889,-0.215,-0.273733410214149,0.0425922530699701,0.0345270116397409,0
783.741666666667,-0.225,-0.223293240489204,0.038841962854107,0.0346571351156156,0
783.744444444444,-0.22,-0.174888476151113,0.0351283299644949,0.0347763529817338,0
783.747222222222,-0.225,-0.131399125072115,0.0316354245928316,0.0348823317009065,0
783.75,-0.23,-0.095014039554472,0.0285207512254812,0.0349735708954026,0
783.752777777778,-0.235,-0.067123317222184,0.025907641958026,0.0350492975703157,0
783.755555555556,-0.25,-0.0482757231058785,0.0238802839947597,0.0351095586082508,0
783.758333333333,-0.23,-0.0382018004234782,0.0224815738125085,0.0351551974077979,0
783.761111111111,-0.205,-0.0358982976259149,0.021713786850721,0.0351877712083246,0
783.763888888889,-0.205,-0.039764942325266,0.0215418566735911,0.035209356151672,0
783.766666666667,-0.22,-0.0477807945983353,0.0218988852345547,0.0352223850024975,0
783.769444444444,-0.245,-0.0577047017225331,0.0221961256160523,0.0352294769634175,0
783.772222222222,-0.24,-0.0672829524708373,0.0217534794797278,0.035233270665167,0
783.775,-0.235,-0.0744471847748824,0.0206688595411376,0.0352362708521317,0
783.777777777778,-0.23,-0.0774869162889512,0.0192301381471837,0.0352407176463654,0
783.780555555556,-0.225,-0.0751836132363859,0.0177966150808069,0.0352459160855021,0
783.783333333333,-0.22,-0.0668967600775977,0.0164583728691271,0.0352494268012666,0
783.786111111111,-0.24,-0.0525966329000836,0.0152854342285438,0.0352492202896932,0
783.788888888889,-0.23,-0.0328430517350115,0.0143249125962179,0.0352437968623535,0
783.791666666667,-0.24,-0.00871390729661296,0.0136001497668373,0.0352352988659309,0
783.794444444444,-0.235,0.0183086485118331,0.0131117542268811,0.0352276305527736,0
783.797222222222,-0.245,0.0464831252328581,0.0128403128596834,0.0352206926085003,0
783.8,-0.245,0.073971198121872,0.0127504331736632,0.0352143545712658,0
783.802777777778,-0.26,0.0990031545736349,0.0127956909906412,0.0352084688208547,0
783.805555555556,-0.25,0.120031806814262,0.0126673674169866,0.035202883739788,0
783.808333333333,-0.23,0.135861792183295,0.0125083499165223,0.0351974558959282,0
783.811111111111,-0.205,0.145743670664354,0.0123664383137183,0.0351920623209927,0
783.813888888889,-0.21,0.14942557493475,0.0122808344896316,0.0351866657912993,0
783.816666666667,-0.21,0.147159067000151,0.012279238820787,0.035181268050861,0
783.819444444444,-0.215,0.139659960066321,0.0123762332200833,0.0351758432822958,0
783.822222222222,-0.22,0.128028814480092,0.0124141471542266,0.0351704067886189,0
783.825,-0.205,0.113639270718915,0.0121288683288585,0.0351649568634804,0
783.827777777778,-0.205,0.098005046977369,0.0117766954840633,0.0351595371001007,0
783.830555555556,-0.2,0.0826380835117625,0.0113867372504182,0.0351542043932119,0
783.833333333333,-0.205,0.0689108318382041,0.0109921934003296,0.0351490163584759,0
783.836111111111,-0.215,0.0579350373706325,0.0106267904733462,0.0351440222784805,0
783.838888888889,-0.22,0.0504676255828178,0.0103213845003039,0.0351392210453784,0
783.841666666667,-0.205,0.0468516460928943,0.0101010330466577,0.0351345445582889,0
783.844444444444,-0.18,0.0469969071562631,0.00998277976235583,0.0351300217660762,0
783.847222222222,-0.17,0.050401251915868,0.00997431701519769,0.0351256659145016,0
783.85,-0.175,0.056209722558751,0.0100736036626888,0.0351214739251932,0
783.852777777778,-0.175,0.0633054624085399,0.0102694238952318,0.0351174272304819,0
783.855555555556,-0.175,0.0704234203160924,0.01054278756954,0.0351134936542477,0
783.858333333333,-0.175,0.0762759894097537,0.0107126890434149,0.035109630227223,0
783.861111111111,-0.16,0.0796787965524742,0.0105466844112137,0.0351057866270368,0
783.863888888889,-0.17,0.0796650293293621,0.0101989225817782,0.0351019104174908,0
783.866666666667,-0.165,0.075577914650908,0.00988081402706419,0.035097897112967,0
783.869444444444,-0.17,0.0671331222615424,0.0096141541595465,0.0350936066015541,0
783.872222222222,-0.165,0.054445749475714,0.00941450673655621,0.0350889182470345,0
783.875,-0.15,0.0380198785497885,0.00929008380012514,0.0350839124193792,0
783.877777777778,-0.13,0.0187021750469896,0.00924136982933512,0.0350786995666189,0
783.880555555556,-0.125,-0.00239570568628524,0.00926149409149178,0.0350733748831199,0
783.883333333333,-0.135,-0.0239983168932938,0.00933728443352764,0.0350680166967646,0
783.886111111111,-0.135,-0.0447815494663347,0.00944085590382808,0.035062685263668,0
783.888888888889,-0.13,-0.0634908476126113,0.00933688372701184,0.0350574235179237,0
783.891666666667,-0.11,-0.0790515128374161,0.00920998781602083,0.0350522593823255,0
783.894444444444,-0.09,-0.0906609636627508,0.00910658583656421,0.0350471516206743,0
783.897222222222,-0.09,-0.0978546143397211,0.00904283481008391,0.0350419868583724,0
783.9,-0.09,-0.100539586939717,0.00903001851763683,0.035036724863742,0
783.902777777778,-0.095,-0.0989935344071183,0.00907363893365178,0.0350313614371141,0
783.905555555556,-0.095,-0.0938291387326478,0.00917216919558113,0.0350259102340254,0
783.908333333333,-0.07,-0.0859280511491146,0.00903930232225023,0.035020400507074,0
783.911111111111,-0.065,-0.0763508629502262,0.0088519840737632,0.0350148734988351,0
783.913888888889,-0.065,-0.0662318764331691,0.00864108624306621,0.0350093805318101,0
783.916666666667,-0.065,-0.056668787118508,0.00842321648051177,0.0350039759672171,0
783.919444444444,-0.08,-0.04861777172815,0.00821506389274387,0.0349987109971338,0
783.922222222222,-0.07,-0.0428038723191866,0.00803165662791339,0.0349936221628493,0
783.925,-0.05,-0.0396550386171052,0.00788484196566878,0.0349886385102921,0
783.927777777778,-0.03,-0.0392658869851713,0.00778213710108088,0.0349837723636272,0
783.930555555556,-0.01,-0.0413943762093149,0.00772605880729047,0.0349790337884849,0
783.933333333333,-0.005,-0.0454914586548619,0.00771399039008467,0.0349744296048837,0
783.936111111111,-0.03,-0.0507606367944857,0.00773858980337006,0.0349699621295122,0
783.938888888889,-0.035,-0.0562415334071816,0.0077886888384639,0.0349656289017066,0
783.941666666667,-0.02,-0.0609093326143358,0.00785058514382598,0.0349614230720965,0
783.944444444444,0.005,-0.0637804774333992,0.00780296673181574,0.0349573335856003,0
783.947222222222,0.01,-0.0640144527852572,0.00776087856308697,0.0349533455107578,0
783.95,0.005,-0.0610018896020156,0.00774750045767605,0.0349494410571615,0
783.952777777778,-0.01,-0.0544305539064,0.00777104539263729,0.0349455992226221,0
783.955555555556,-0.005,-0.044322906094553,0.00783516808065011,0.0349417145287911,0
783.958333333333,0.015,-0.0310416276370233,0.00793844959068577,0.0349376802701742,0
783.961111111111,0.04,-0.0152625575838322,0.00807439726615557,0.034933493507418,0
783.963888888889,0.04,0.00208242841808242,0.00823196073569944,0.0349291614715922,0
783.966666666667,0.035,0.0198872199180742,0.00839651415922232,0.0349247018549242,0
783.969444444444,0.015,0.0369702475444289,0.00855120940996868,0.034920140109464,0
783.972222222222,0.01,0.0521809286702655,0.00853177664264878,0.0349155061585841,0
783.975,0.03,0.0645037624808767,0.00844818102446826,0.0349108302537149,0
783.977777777778,0.025,0.0731502851755682,0.00842212647495494,0.0349061586410125,0
783.980555555556,0.04,0.0776302506310646,0.00846336758797938,0.0349014678322495,0
783.983333333333,0.025,0.0777953692153663,0.00857662768817068,0.0348967163248927,0
783.986111111111,0.005,0.0738515304340302,0.00876104918541482,0.0348919276117921,0
783.988888888889,-0.01,0.0663384079074137,0.00901015548338489,0.034887127385282,0
783.991666666667,0,0.0560784165946492,0.00910456494091746,0.0348823441158528,0
783.994444444444,0.025,0.0440998721252206,0.00899079367361001,0.0348776093135625,0
783.997222222222,0.025,0.0315416190195251,0.00865170690016127,0.0348729594832431,0
784,0,0.019548121040543,0.00829511925172273,0.0348684363540792,0
784.002777777778,-0.02,0.00916488101480731,0.00795951203645347,0.0348640865051718,0
784.005555555556,-0.035,0.00124399803056258,0.00766242943892837,0.0348599428426361,0
784.008333333333,-0.045,-0.00363131587301594,0.00741795293741507,0.0348560154026178,0
784.011111111111,-0.035,-0.0051962548448825,0.00723560414677506,0.0348523473984453,0
784.013888888889,-0.03,-0.00352344532657063,0.00711967971093257,0.034848998499768,0
784.016666666667,-0.065,0.000990150877166745,0.00706907434716335,0.0348460431288415,0
784.019444444444,-0.08,0.00766703976757156,0.00707760125317323,0.0348435059197828,0
784.022222222222,-0.1,0.0156193818802734,0.00713477174905636,0.0348413822421304,0
784.025,-0.09,0.023838750119417,0.00722695278471287,0.03483966045969,0
784.027777777778,-0.095,0.0312968081124071,0.00711511965126564,0.034838321596125,0
784.030555555556,-0.105,0.037047245564093,0.00699917770798834,0.0348373408428111,0
784.033333333333,-0.115,0.0403192145077926,0.006893342701978,0.034836690791284,0
784.036111111111,-0.145,0.0405933458896263,0.00680916364022064,0.0348363409949749,0
784.038888888889,-0.15,0.0376531092368143,0.00675448315623957,0.0348362586258231,0
784.041666666667,-0.135,0.0316066484264319,0.00673279313056642,0.0348363294905838,0
784.044444444444,-0.12,0.0228770577527451,0.00674304158519504,0.0348365276408743,0
784.047222222222,-0.11,0.0121620847966389,0.00677990213886938,0.0348368427941188,0
784.05,-0.125,0.000367172098844642,0.00683447188998226,0.0348372704291709,0
784.052777777778,-0.15,-0.0114817003875597,0.00689532190715398,0.0348378096280706,0
784.055555555556,-0.15,-0.0223369786488637,0.00684085322647632,0.034838463483084,0
784.058333333333,-0.145,-0.0312307816178417,0.00680525656365105,0.034839237821251,0
784.061111111111,-0.13,-0.0373686914539489,0.00679948018638185,0.0348401381087418,0
784.063888888889,-0.135,-0.0402070600722894,0.00683172851861167,0.0348411585475543,0
784.066666666667,-0.14,-0.0395063821609231,0.00690655079294705,0.0348422785162148,0
784.069444444444,-0.155,-0.0353555759893484,0.00702431011436365,0.0348434895794864,0
784.072222222222,-0.16,-0.0281647998508836,0.00718108478666047,0.0348447765571679,0
784.075,-0.14,-0.0186274481724182,0.00736901030352269,0.0348461153080821,0
784.077777777778,-0.125,-0.00765492910217395,0.00757702627467764,0.0348474714824748,0
784.080555555556,-0.115,0.00370955813228669,0.0075891771514621,0.0348488008001913,0
784.083333333333,-0.13,0.0143900033422525,0.00738134691132298,0.0348500509535309,0
784.086111111111,-0.145,0.023379842383053,0.0071940583118036,0.0348511668272025,0
784.088888888889,-0.145,0.029837679068905,0.0070388649406116,0.0348520303747308,0
784.091666666667,-0.14,0.0331672685387516,0.00692428071287847,0.0348525823540389,0
784.094444444444,-0.125,0.0330740507600918,0.00685493499918143,0.0348528030720928,0
784.097222222222,-0.11,0.0295927577782874,0.00683111644483045,0.034852693355642,0
784.1,-0.115,0.0230833838286892,0.00684875313754869,0.0348523404447814,0
784.102777777778,-0.13,0.0141958400813227,0.006899833221463,0.0348518961220323,0
784.105555555556,-0.125,0.00380662588645308,0.00697322594147696,0.0348515512407921,0
784.108333333333,-0.12,-0.00706645242761834,0.00700750018163647,0.0348515306776482,0
784.111111111111,-0.11,-0.0173633553759121,0.00692943699640437,0.0348520103842355,0
784.113888888889,-0.09,-0.026085164308616,0.00686885311109411,0.0348528077085503,0
784.116666666667,-0.11,-0.0323917588539433,0.0068365499394464,0.0348537056055812,0
784.119444444444,-0.125,-0.0356843709335048,0.00684003863686194,0.03485446286788,0
784.122222222222,-0.125,-0.0356649870871569,0.00688271712273033,0.034854824226126,0
784.125,-0.13,-0.0323667657995322,0.00696345596576608,0.0348544636392051,0
784.127777777778,-0.11,-0.0261524006079939,0.00707663892180529,0.0348530751302534,0
784.130555555556,-0.11,-0.0176804305144605,0.00721265905014226,0.0348569193299445,0
784.133333333333,-0.115,-0.00784258372527024,0.00735882601159559,0.0348694744338106,0
784.136111111111,-0.12,0.00232195645985538,0.00749417002589019,0.0348914162064712,0
784.138888888889,-0.12,0.0117272235176621,0.00737650728385929,0.0349230569426783,0
784.141666666667,-0.115,0.0193464557872846,0.00728728556040294,0.0349642968013616,0
784.144444444444,-0.1,0.0243132132860297,0.00724261042928348,0.0350145928661082,0
784.147222222222,-0.115,0.0260078441620218,0.00725010981042447,0.0350728955572254,0
784.15,-0.12,0.0241208703621778,0.00731284652639378,0.0351377072286342,0
784.152777777778,-0.145,0.0186870268977107,0.00742890224696394,0.0352071787087057,0
784.155555555556,-0.15,0.0100864671970287,0.00759144326942948,0.0352792114520306,0
784.158333333333,-0.14,-0.000987224098266029,0.00778926796353603,0.0353514787727087,0
784.161111111111,-0.11,-0.0135893874229102,0.00800778831387943,0.0354215307584957,0
784.163888888889,-0.125,-0.0266112590809125,0.00822901797190396,0.0354910108175374,0
784.166666666667,-0.13,-0.0388834038468501,0.00821099869038214,0.0355617375459651,0
784.169444444444,-0.145,-0.0492858242544743,0.00803075150271115,0.0356354031087687,0
784.172222222222,-0.155,-0.0568542556064676,0.00789315744773413,0.0357134546449998,0
784.175,-0.145,-0.0608724497996707,0.00780776524017469,0.0357971196063871,0
784.177777777778,-0.13,-0.0609415232625789,0.00777929237579414,0.0358874363025452,0
784.180555555556,-0.14,-0.0570195792932148,0.00780715938792968,0.0359853777980004,0
784.183333333333,-0.155,-0.0494276143483126,0.00788553154560322,0.0360917496605226,0
784.186111111111,-0.16,-0.0388209181003543,0.00800386787209715,0.0362072027290182,0
784.188888888889,-0.17,-0.0261284750231728,0.00814792741173928,0.0363322491138635,0
784.191666666667,-0.15,-0.0124659561783444,0.00817100100430272,0.0364668340167338,0
784.194444444444,-0.125,0.000969542405860162,0.0080259489019047,0.0366085493686522,0
784.197222222222,-0.135,0.0130130530802772,0.00790542632140388,0.0367546503025124,0
784.2,-0.155,0.0226427553197972,0.00782329014868895,0.0369021739528926,0
784.202777777778,-0.15,0.0290777992488567,0.00778955186166078,0.0370480784402592,0
784.205555555556,-0.165,0.0318534613723485,0.00780942984629441,0.0371893845288966,0
784.208333333333,-0.15,0.030866264623269,0.00788288142133684,0.0373233133511704,0
784.211111111111,-0.135,0.026384522124069,0.00800466446136474,0.0374480292870544,0
784.213888888889,-0.125,0.0190230493541025,0.00816492575194391,0.0375637546800294,0
784.216666666667,-0.135,0.0096842222360128,0.00835025998064848,0.0376708419660733,0
784.219444444444,-0.16,-0.000529188173724672,0.00854513486430303,0.0377698436949857,0
784.222222222222,-0.16,-0.0104212130158798,0.00846306035812409,0.0378615108288682,0
784.225,-0.14,-0.0188197239829487,0.00829591343829619,0.0379467491632707,0
784.227777777778,-0.13,-0.0246920815085626,0.00816200517157521,0.0380266214446759,0
784.230555555556,-0.125,-0.0272481894927462,0.00806921778711603,0.0381023430065445,0
784.233333333333,-0.13,-0.0260208569978217,0.00802047034644877,0.0381752392498285,0
784.236111111111,-0.16,-0.0209154521316635,0.00801338264423536,0.0382467020106074,0
784.238888888889,-0.165,-0.0122237098451017,0.00804051398120553,0.0383183232534223,0
784.241666666667,-0.15,-0.000599956844274451,0.00809016512127935,0.0383917729767072,0
784.244444444444,-0.14,0.0129983763681032,0.00814767296910731,0.0384646464592054,0
784.247222222222,-0.15,0.0274006168102714,0.00819707429967664,0.0385344462875353,0
784.25,-0.14,0.0413347453787045,0.00817117585731969,0.0385989439009138,0
784.252777777778,-0.14,0.0535507541574935,0.00818173187765732,0.0386562685062152,0
784.255555555556,-0.16,0.0629436409831293,0.00823756026055379,0.038704974033184,0
784.258333333333,-0.15,0.0686640860720195,0.00834203302655122,0.0387440723911543,0
784.261111111111,-0.145,0.0702058693621942,0.00849229641987419,0.0387729333642389,0
784.263888888889,-0.135,0.0674611650923009,0.00867912995026192,0.0387913939606783,0
784.266666666667,-0.15,0.0607378085792511,0.00888748927132238,0.038802014731818,0
784.269444444444,-0.175,0.0507361996513857,0.0090977090289706,0.0388141018480774,0
784.272222222222,-0.165,0.038487356585908,0.00928727261056212,0.0388275007227339,0
784.275,-0.165,0.0252574013658924,0.00934834933690787,0.0388420286197583,0
784.277777777778,-0.15,0.0124270819193403,0.00926794352626888,0.0388574855677314,0
784.280555555556,-0.13,0.00135749661767942,0.0092702532885154,0.038873665635784,0
784.283333333333,-0.15,-0.00674527489839082,0.00936653277383432,0.0388903624525961,0
784.286111111111,-0.15,-0.0109535756083932,0.00956032158483111,0.0389073741676771,0
784.288888888889,-0.16,-0.0107174336876655,0.00984657821756347,0.0389245121946377,0
784.291666666667,-0.145,-0.00592956659867415,0.010211646681276,0.038941727383528,0
784.294444444444,-0.12,0.0030509292752902,0.0106341120331894,0.0389592640814445,0
784.297222222222,-0.125,0.0154194666073051,0.0110865145725934,0.0389773252848308,0
784.3,-0.125,0.0299905154234086,0.0115378046372872,0.0389960195873887,0
784.302777777778,-0.145,0.045300712646808,0.0119563387050078,0.0390153018037216,0
784.305555555556,-0.15,0.0597416439246302,0.0121238610057533,0.0390350497074769,0
784.308333333333,-0.14,0.0717103744220425,0.0119322200096535,0.039055194062459,0
784.311111111111,-0.13,0.0797638262723803,0.0117592189908849,0.0390756732549487,0
784.313888888889,-0.14,0.0827623838313316,0.0116885377120249,0.0390964042857255,0
784.316666666667,-0.145,0.0799887474737041,0.011711231036282,0.0391173964828375,0
784.319444444444,-0.165,0.0712300220819932,0.0118060312984098,0.0391386102270223,0
784.322222222222,-0.17,0.0568141640069173,0.0119405064809206,0.0391600428984193,0
784.325,-0.16,0.0375959552756327,0.0120734648465757,0.0391817309696128,0
784.327777777778,-0.145,0.0148922724842261,0.012158481172067,0.039203747336466,0
784.330555555556,-0.13,-0.00962884153186996,0.0121686565315106,0.0392261939984764,0
784.333333333333,-0.14,-0.0340963455161474,0.0123171440977183,0.0392491906070217,0
784.336111111111,-0.145,-0.0566089059845012,0.012637851098273,0.039272859213988,0
784.338888888889,-0.145,-0.0754167629495107,0.0131507138619456,0.0392927050691253,0
784.341666666667,-0.145,-0.0890960342035813,0.0138577295182741,0.0393076266384653,0
784.344444444444,-0.14,-0.0966988851950952,0.0147402048925762,0.0393177958598773,0
784.347222222222,-0.14,-0.0978646528212501,0.015757576054455,0.039324367630955,0
784.35,-0.135,-0.0928800734376734,0.0168480422259172,0.0393293882959632,0
784.352777777778,-0.155,-0.0826809874591345,0.017931120191008,0.0393352980233556,0
784.355555555556,-0.155,-0.0687929258356645,0.0189120702023634,0.039341944008394,0
784.358333333333,-0.13,-0.053213398787407,0.019496698573258,0.0393473277965352,0
784.361111111111,-0.115,-0.0382440331929324,0.0193598362315541,0.0393491942443788,0
784.363888888889,-0.13,-0.0262854690728633,0.0192976521907428,0.0393451460305928,0
784.366666666667,-0.125,-0.0196116949236123,0.0197209321748965,0.039332781336431,0
784.369444444444,-0.135,-0.020142922268203,0.0206863510199036,0.0393098477140096,0
784.372222222222,-0.145,-0.0292369287772167,0.0222199238402576,0.0392744021495883,0
784.375,-0.14,-0.0475179276672684,0.0243118380155137,0.039224964422173,0
784.377777777778,-0.14,-0.0747594851457889,0.0269135079270687,0.039160608769298,0
784.380555555556,-0.135,-0.109833987995418,0.0299372281481765,0.0390810555368214,0
784.383333333333,-0.14,-0.15073597107358,0.0332586237872623,0.0389868880321646,0
784.386111111111,-0.145,-0.194680666045886,0.0367218960147429,0.0388795814708467,0
784.388888888889,-0.135,-0.238272915515702,0.0401476512170017,0.0387616440883406,0
784.391666666667,-0.125,-0.277735628353672,0.0429991355542805,0.038636179652388,0
784.394444444444,-0.11,-0.309181736241931,0.0450654804458172,0.0385065283832277,0
784.397222222222,-0.115,-0.328909595355503,0.0462672755930211,0.0383768091639441,0
784.4,-0.115,-0.333699312837799,0.0465804780542167,0.0382449318187151,0
784.402777777778,-0.13,-0.321086791946249,0.0460921782753788,0.0381079782539131,0
784.405555555556,-0.135,-0.289593463674508,0.0465863709811761,0.0379634566725836,0
784.408333333333,-0.1,-0.238892634377896,0.0480944731210626,0.0378094036195512,0
784.411111111111,-0.075,-0.169897908571533,0.0505551271845139,0.0376444459067519,0
784.413888888889,-0.02,-0.0847648935048289,0.0533325982204809,0.0374678189134276,0
784.416666666667,0.04,0.0131960943986197,0.0562475305208812,0.0372792366914059,0
784.419444444444,0.085,0.119691837775757,0.0591309534524012,0.037078892206109,0
784.422222222222,0.17,0.229691582563314,0.06183719307117,0.0368674144843619,0
784.425,0.3,0.337729328151766,0.064254382257885,0.0366457493388882,0
784.427777777778,0.46,0.438241996643426,0.0663117386024397,0.0364150238284039,0
784.430555555556,0.62,0.525919621808086,0.0679830629922272,0.0361764054123661,0
784.433333333333,0.78,0.596042709641191,0.069286238398127,0.0359309705999668,0
784.436111111111,0.93,0.644782830533575,0.0702788496062593,0.0356824671608713,0
784.438888888889,1.09,0.669445228956505,0.0710503715568632,0.0354363430799575,1
784.441666666667,1.23,0.668636556948331,0.0717116590111801,0.0351957424973165,0
784.444444444444,1.3,0.64234640436014,0.0715128608108742,0.0349608852684156,0
784.447222222222,1.25,0.59193766815418,0.0707159001395476,0.0347322927641869,0
784.45,1.085,0.520047472969503,0.0696930557098107,0.0345107047461407,0
784.452777777778,0.84,0.430406806417445,0.0683714964557649,0.0342969630011065,0
784.455555555556,0.575,0.327592770815783,0.0667139199841353,0.0340918649387855,0
784.458333333333,0.32,0.216731948323184,0.0647237612326047,0.0338961143089578,0
784.461111111111,0.07,0.10317649652926,0.0624467693882761,0.033710178989172,0
784.463888888889,-0.145,-0.00782397296363743,0.0599688295945923,0.0335340885767466,0
784.466666666667,-0.295,-0.111432001928029,0.0574102233735099,0.0333673434028349,0
784.469444444444,-0.33,-0.203492658701684,0.0549168186054895,0.0332088457373239,0
784.472222222222,-0.28,-0.280747458310748,0.0526489317400054,0.0330568793799697,0
784.475,-0.225,-0.340979291234843,0.0507687912794764,0.0329091383823153,0
784.477777777778,-0.17,-0.383081286915929,0.0494276379965296,0.0327616201002889,0
784.480555555556,-0.14,-0.407048340573414,0.0487535163141355,0.0326163299153047,0
784.483333333333,-0.145,-0.413895713656092,0.0487849723195262,0.0324766130192648,0
784.486111111111,-0.185,-0.405514244852822,0.0478838259472307,0.0323458543075292,0
784.488888888889,-0.205,-0.384475904018578,0.0461628127261791,0.0322272821926568,0
784.491666666667,-0.21,-0.353806396579545,0.0437036885763308,0.0321237721406909,0
784.494444444444,-0.205,-0.316743099190101,0.0407103253838042,0.0320369591646596,0
784.497222222222,-0.205,-0.276496715081038,0.0373702453021266,0.0319667648714059,0
784.5,-0.22,-0.236033735189429,0.033877039359025,0.0319122218039909,0
784.502777777778,-0.235,-0.197894244418703,0.0304186606907691,0.0318716369993705,0
784.505555555556,-0.25,-0.16405607924164,0.027166770235655,0.0318427682541822,0
784.508333333333,-0.24,-0.135852149022573,0.024267767840359,0.0318229998369749,0
784.511111111111,-0.24,-0.113943242956951,0.0218359959169625,0.0318095274624667,0
784.513888888889,-0.245,-0.0983442284791881,0.0199494299495748,0.0317995371884737,0
784.516666666667,-0.265,-0.0884975527922616,0.018647983819416,0.0317903711553868,0
784.519444444444,-0.275,-0.0833846831587589,0.0179343720576136,0.0317796704484445,0
784.522222222222,-0.28,-0.0816637869942548,0.0177772990799494,0.0317676953140064,0
784.525,-0.28,-0.0818206947858761,0.0181165989433732,0.0317577318323504,0
784.527777777778,-0.265,-0.0823200475813385,0.0182918051845222,0.031752633963949,0
784.530555555556,-0.26,-0.0817444527422605,0.0179108660975429,0.0317539781364492,0
784.533333333333,-0.265,-0.0789113187734734,0.0170783174972053,0.0317616942509483,0
784.536111111111,-0.28,-0.0729596055404642,0.0159139324113378,0.0317753472617369,0
784.538888888889,-0.285,-0.0634017553978112,0.0145431012486035,0.0317906917884169,0
784.541666666667,-0.285,-0.050139284983307,0.0132081832368043,0.0318052202262395,0
784.544444444444,-0.265,-0.0334436386887193,0.0120088143240255,0.0318191437910234,0
784.547222222222,-0.265,-0.0139066791879134,0.0109909211240782,0.031832630028583,0
784.55,-0.275,0.00763259180724502,0.0101798603539963,0.0318458241633797,0
784.552777777778,-0.305,0.0301769783620641,0.00958121095197001,0.0318588375622719,0
784.555555555556,-0.29,0.0526668735115546,0.00918296659887606,0.0318717407828664,0
784.558333333333,-0.285,0.0740741281003707,0.00895883639163682,0.0318843711038627,0
784.561111111111,-0.26,0.0934860654055943,0.00887230034751965,0.031896670167605,0
784.563888888889,-0.26,0.110173134527562,0.00888103674242582,0.0319086164272076,0
784.566666666667,-0.265,0.123635584324154,0.00893051903514999,0.0319202224218017,0
784.569444444444,-0.275,0.133626691636,0.0089669220047922,0.0319315299929317,0
784.572222222222,-0.275,0.140152289665242,0.00901335428909776,0.0319426026852145,0
784.575,-0.275,0.143448419564529,0.00900905228692303,0.0319533998736917,0
784.577777777778,-0.265,0.143940699954296,0.00893784897264355,0.0319636979027866,0
784.580555555556,-0.265,0.142190342404864,0.00879423387355382,0.0319735902130928,0
784.583333333333,-0.27,0.138832550104723,0.00858286027599131,0.0319832142796879,0
784.586111111111,-0.275,0.134513287726131,0.00831718762615163,0.0319926498967781,0
784.588888888889,-0.27,0.129830119839441,0.00801744693884563,0.0320018733031745,0
784.591666666667,-0.28,0.125282046432581,0.0077081589978968,0.0320108844051398,0
784.594444444444,-0.26,0.121232118194542,0.00741545525162712,0.0320197057175543,0
784.597222222222,-0.255,0.117885218517554,0.00716444937846818,0.0320283803287039,0
784.6,-0.25,0.115281894163449,0.00697688512824847,0.032036967429844,0
784.602777777778,-0.26,0.113307642546666,0.00686924640918188,0.0320455365841941,0
784.605555555556,-0.26,0.111715748266044,0.00685146308127284,0.0320541608936771,0
784.608333333333,-0.26,0.110160709350957,0.00692628571308838,0.0320629101705267,0
784.611111111111,-0.245,0.108238578267018,0.00708934015684949,0.0320717291477505,0
784.613888888889,-0.235,0.105530202361298,0.00732981354003188,0.0320804399734084,0
784.616666666667,-0.24,0.101643385242394,0.00763167192014768,0.0320888765612338,0
784.619444444444,-0.255,0.0962503729733429,0.00797527022104536,0.0320970291997575,0
784.622222222222,-0.255,0.0891177368881515,0.00821847546502606,0.032104908277885,0
784.625,-0.235,0.0801265974389145,0.0083498429408498,0.0321125902293094,0
784.627777777778,-0.225,0.0692821178699826,0.00839451317551889,0.0321202407745082,0
784.630555555556,-0.215,0.0567121971623403,0.008377692960202,0.0321279119110445,0
784.633333333333,-0.225,0.042656219249342,0.00832232605321804,0.032135629101152,0
784.636111111111,-0.245,0.0274454944214606,0.00824718657058678,0.0321433942987026,0
784.638888888889,-0.24,0.011477603089016,0.00816552630993761,0.0321511768386122,0
784.641666666667,-0.235,-0.00481281136327649,0.00808434798633243,0.0321587628237081,0
784.644444444444,-0.205,-0.0209841639758822,0.00802822486345181,0.0321660705250575,0
784.647222222222,-0.19,-0.0366164700951244,0.00800249623148544,0.0321730525803883,0
784.65,-0.19,-0.0513361562760426,0.00799333771597713,0.0321796771604735,0
784.652777777778,-0.2,-0.0648354824175739,0.00798635049027629,0.0321859292645675,0
784.655555555556,-0.2,-0.076885505340219,0.0079679432547431,0.0321918103989536,0
784.658333333333,-0.19,-0.0873421364560193,0.00792657008634203,0.0321973360389092,0
784.661111111111,-0.175,-0.0961454460808914,0.00785372285083789,0.0322023258803422,0
784.663888888889,-0.165,-0.103312895179921,0.00774460325458067,0.0322067465769988,0
784.666666666667,-0.165,-0.108927594363916,0.00759843119296908,0.0322106711085398,0
784.669444444444,-0.175,-0.113122976006417,0.00741837987835786,0.0322142991562643,0
784.672222222222,-0.16,-0.116065409110742,0.00721116130154661,0.0322178135085231,0
784.675,-0.14,-0.117936292352474,0.00698631510163457,0.0322213638717723,0
784.677777777778,-0.14,-0.118915044470637,0.00675527752047727,0.0322250492041317,0
784.680555555556,-0.14,-0.119164197440192,0.00653032303814549,0.0322288788080383,0
784.683333333333,-0.135,-0.118817516386946,0.00632347848890125,0.0322328751564339,0
784.686111111111,-0.14,-0.117971752433349,0.00614550768829123,0.0322369922246576,0
784.688888888889,-0.15,-0.116682310468003,0.00600505437444674,0.0322411281532331,0
784.691666666667,-0.14,-0.114962808929388,0.00590801378731566,0.0322451550342904,0
784.694444444444,-0.13,-0.112788242854131,0.00585718024958845,0.0322489493946743,0
784.697222222222,-0.12,-0.110101247618858,0.00585219183862464,0.032252411294994,0
784.7,-0.125,-0.106820805179427,0.00588976601576911,0.0322555376354715,0
784.702777777778,-0.135,-0.102852637385695,0.00596419427062688,0.0322583628500471,0
784.705555555556,-0.13,-0.0981004877231942,0.00606804160712333,0.0322609563137096,0
784.708333333333,-0.11,-0.0924774962779878,0.00619297983939278,0.0322634259346568,0
784.711111111111,-0.1,-0.0859169142978718,0.00633067346731648,0.0322660057107073,0
784.713888888889,-0.1,-0.0783814761823226,0.00647363405769641,0.0322685529164332,0
784.716666666667,-0.1,-0.069870841208003,0.0066159636281643,0.0322708744750993,0
784.719444444444,-0.12,-0.06042662986318,0.00675391895795027,0.0322727301082067,0
784.722222222222,-0.12,-0.0501347073389705,0.00688624591678335,0.0322738406588501,0
784.725,-0.1,-0.0391245079440551,0.00699034520514391,0.0322737924804001,0
784.727777777778,-0.09,-0.0275653479263033,0.00705938925038857,0.0322732915707951,0
784.730555555556,-0.1,-0.0156598387721864,0.00710281690076714,0.0322827387079535,0
784.733333333333,-0.11,-0.00363468522474419,0.00712847441624232,0.0323034495610625,0
784.736111111111,-0.11,0.00827067377995056,0.00714203908223522,0.0323363518761865,0
784.738888888889,-0.12,0.0198169560329404,0.00714657981739465,0.0323818698978292,0
784.741666666667,-0.105,0.0307786850486876,0.00714228854644059,0.0324398288570605,0
784.744444444444,-0.11,0.0409577069061145,0.00712640978348382,0.0325092351005419,0
784.747222222222,-0.115,0.0501956148259238,0.00709338646658245,0.0325883732374214,0
784.75,-0.145,0.0583841116782119,0.00703522763399139,0.0326748488953049,0
784.752777777778,-0.16,0.0654724019035552,0.0069420884912123,0.0327658152861465,0
784.755555555556,-0.16,0.0714708426888558,0.0068030366797899,0.0328579513861617,0
784.758333333333,-0.16,0.0764502993708117,0.00660696141648332,0.0329521455847743,0
784.761111111111,-0.155,0.0805369341465257,0.00634356621599436,0.0330523158075823,0
784.763888888889,-0.145,0.0839024945622271,0.00600437288039316,0.0331623670447443,0
784.766666666667,-0.175,0.0867505358279195,0.00566576563162515,0.0332854987435988,0
784.769444444444,-0.2,0.0892993796542438,0.0053730130645944,0.0334240888646917,0
784.772222222222,-0.21,0.091762949141639,0.00513819279257155,0.0335797044394426,0
784.775,-0.2,0.0943308905306902,0.0049707033968484,0.0337530903239239,0
784.777777777778,-0.195,0.097149567085587,0.00487656972148321,0.0339442171661326,0
784.780555555556,-0.195,0.10030556266735,0.00485800649648394,0.0341522172659682,0
784.783333333333,-0.21,0.103813246335336,0.00491328436350039,0.0343758546326315,0
784.786111111111,-0.235,0.107607719807697,0.00503691834636376,0.0346135607090825,0
784.788888888889,-0.24,0.111544105107763,0.00522017237354596,0.0348636183392916,0
784.791666666667,-0.225,0.115403651947285,0.00545184666004248,0.0351239360605273,0
784.794444444444,-0.225,0.118906587531584,0.00571928971360723,0.0353898176976092,0
784.797222222222,-0.21,0.121731039870013,0.00600955549003779,0.0356562073858808,0
784.8,-0.215,0.123536790400656,0.006310610598036,0.035917946690063,0
784.802777777778,-0.23,0.123992106192431,0.0066124878859031,0.0361729515516001,0
784.805555555556,-0.24,0.122801517011788,0.00690828217765577,0.0364212039493207,0
784.808333333333,-0.235,0.119732181437928,0.00719489173516425,0.0366622594991701,0
784.811111111111,-0.23,0.114636460172474,0.00747342495245101,0.0368955507987599,0
784.813888888889,-0.23,0.107468499101003,0.00774921496026012,0.0371204419040909,0
784.816666666667,-0.25,0.0982930166818987,0.00803141377403973,0.0373363889208137,0
784.819444444444,-0.245,0.0872850679538875,0.00833217040300397,0.0375431013461732,0
784.822222222222,-0.245,0.0747202807946632,0.00866543162981589,0.0377406888816041,0
784.825,-0.235,0.0609558734341987,0.00904543743533259,0.0379297794276042,0
784.827777777778,-0.22,0.0464035987261055,0.00948501271127302,0.0381115960726539,0
784.830555555556,-0.225,0.0314965475654184,0.00999378055665842,0.0382879845701989,0
784.833333333333,-0.225,0.0166524087866975,0.0105764380046271,0.0384612368014052,0
784.836111111111,-0.23,0.00223626048491056,0.0112312408845067,0.0386341536236851,0
784.838888888889,-0.235,-0.0114737943289935,0.0119488397312602,0.0388055315610159,0
784.841666666667,-0.22,-0.0243148704528534,0.0127115929788586,0.0389709893411157,0
784.844444444444,-0.215,-0.0362584653293821,0.0134934576579884,0.0391266390087783,0
784.847222222222,-0.205,-0.0474181837628206,0.0141784131734223,0.0392692608847609,0
784.85,-0.21,-0.0580444908904609,0.0146784205529661,0.0393964322538845,0
784.852777777778,-0.205,-0.0685059706043201,0.0149378906855643,0.0395066040421737,0
784.855555555556,-0.225,-0.0792576775929801,0.0149058398149622,0.0395991238813459,0
784.858333333333,-0.21,-0.0907982963878401,0.0146395249614559,0.0396742070945181,0
784.861111111111,-0.19,-0.103618867547148,0.0146129382618559,0.0397328245806193,0
784.863888888889,-0.185,-0.118146719575118,0.0148629440262177,0.0397765784627088,0
784.866666666667,-0.17,-0.134688876049752,0.0154163528053862,0.0398077057182931,0
784.869444444444,-0.185,-0.153379528865995,0.0162870786347019,0.0398288232006549,0
784.872222222222,-0.16,-0.17413614169661,0.0174738329613506,0.0398427502417658,0
784.875,-0.145,-0.196628360797418,0.0189585475832505,0.0398523341081765,0
784.877777777778,-0.125,-0.220263179691696,0.0207056841786525,0.0398602874561314,0
784.880555555556,-0.11,-0.244188774402694,0.0226625409117035,0.0398690498179409,0
784.883333333333,-0.1,-0.267318165889232,0.0247606096832211,0.0398777697576563,0
784.886111111111,-0.1,-0.288372465017459,0.0269179741427135,0.0398835003056326,0
784.888888888889,-0.095,-0.30594201459809,0.0290426724419458,0.0398838535490366,0
784.891666666667,-0.06,-0.318562369708892,0.0310368840797613,0.0398788057452683,0
784.894444444444,-0.015,-0.324800855532901,0.0328017413162135,0.0398745091143986,0
784.897222222222,0.035,-0.323348503865479,0.0342425165613762,0.0398709440832878,0
784.9,0.09,-0.313111569425868,0.0352739014224947,0.0398680456633731,0
784.902777777778,0.135,-0.293296615100152,0.0358250735363429,0.039865715397864,0
784.905555555556,0.19,-0.2634833531438,0.0358442457891133,0.0398638344193394,0
784.908333333333,0.26,-0.223680029385552,0.0353024098029864,0.0398622765355846,0
784.911111111111,0.345,-0.174357102752054,0.0351197878328415,0.0398609194238691,0
784.913888888889,0.44,-0.116456239938235,0.0353358916482607,0.039859653715515,0
784.916666666667,0.51,-0.0513731303697912,0.0359232309013099,0.0398583799287877,0
784.919444444444,0.565,0.0190857697025937,0.036846915505583,0.0398568471334357,0
784.922222222222,0.65,0.0927708402004633,0.0380672260629472,0.0398548910968447,0
784.925,0.755,0.167278004402273,0.0395421290134356,0.0398525272024893,0
784.927777777778,0.855,0.240053973513448,0.0412295638387086,0.0398498018739108,0
784.930555555556,0.94,0.308512418137736,0.0430893586137375,0.0398467834347863,0
784.933333333333,1,0.37015475770871,0.04508466823573,0.0398435522004356,0
784.936111111111,1.05,0.422688946807087,0.0471828733884267,0.0398401894028935,0
784.938888888889,1.105,0.464139726574384,0.0492557619237416,0.0398367667447076,0
784.941666666667,1.13,0.492944289035292,0.050773998483173,0.0398333375402076,0
784.944444444444,1.14,0.508028136393602,0.0516629417304219,0.0398298347614949,0
784.947222222222,1.12,0.508857049270557,0.0518764252296295,0.0398261465031779,0
784.95,1.105,0.495462433588517,0.0513993386796435,0.0398222927708611,0
784.952777777778,1.08,0.468438810110747,0.0502486119239952,0.0398182936962677,0
784.955555555556,1.045,0.42891375267151,0.0484725339544265,0.0398141686058873,0
784.958333333333,1,0.378492080253313,0.0463081441848578,0.0398099345993904,0
784.961111111111,0.955,0.319177479378753,0.0442185025408945,0.0398056067873286,0
784.963888888889,0.85,0.253275902328053,0.0422292762374851,0.0398011957396633,0
784.966666666667,0.73,0.183285993266906,0.0403698077013153,0.0397965709008582,0
784.969444444444,0.64,0.111782395210439,0.0386727230234443,0.0397916016458988,0
784.972222222222,0.535,0.0412980610618541,0.0371730949978258,0.0397863489770958,0
784.975,0.43,-0.0257883741903604,0.035907199664703,0.0397806529660385,0
784.977777777778,0.34,-0.0873544933819131,0.0349109340053651,0.0397744865596453,0
784.980555555556,0.265,-0.141620288045036,0.0342179865269051,0.0397679016635177,0
