time_s,raw_ecg,filtered_ecg,diff_envelope,threshold,is_r_peak
1398.725,-0.22,0.0648526020439968,0.00672091392200137,0.0367589597071876,0
1398.72777777778,-0.235,0.067905017880297,0.00646934147375904,0.036627256282446,0
1398.73055555556,-0.25,0.0708907333975983,0.00628335292533946,0.0364947572847952,0
1398.73333333333,-0.24,0.0729764446104105,0.00616565313850689,0.0363626842159939,0
1398.73611111111,-0.22,0.0734050075693919,0.00611442769529932,0.0362355493463235,0
1398.73888888889,-0.205,0.0715794190281977,0.00610465708786105,0.0361178366226527,0
1398.74166666667,-0.205,0.067128308447091,0.006041935888044,0.0360136986239654,0
1398.74444444444,-0.185,0.059946677657382,0.00593568459374062,0.0359257505726238,0
1398.74722222222,-0.19,0.0502082322312934,0.00579555300325899,0.0358544480600241,0
1398.75,-0.19,0.0383485621056165,0.00563044398520038,0.0357993325099818,0
1398.75277777778,-0.185,0.0250213580524165,0.00544779953464113,0.0357591313947811,0
1398.75555555556,-0.19,0.0110325090608553,0.0052685012190247,0.0357319525317399,0
1398.75833333333,-0.19,-0.00274094101282631,0.00524407661207265,0.0357155222348786,0
1398.76111111111,-0.18,-0.0154385902545245,0.00537725645993322,0.035707275820781,0
1398.76388888889,-0.205,-0.0263022827543148,0.00559201606689661,0.035704538438253,0
1398.76666666667,-0.185,-0.0347509059188758,0.0058121343405553,0.0357026526390374,0
1398.76944444444,-0.185,-0.0404369444793911,0.00603729501637742,0.0357013774679916,0
1398.77222222222,-0.185,-0.0432792501585386,0.00626641506729586,0.0357008251113355,0
1398.775,-0.19,-0.0434689045660082,0.00649713886988815,0.0357005412010951,0
1398.77777777778,-0.175,-0.0414477515586123,0.00672554403725516,0.035699886959609,0
1398.78055555556,-0.17,-0.037861887052977,0.00682020036895607,0.0356986517848051,0
1398.78333333333,-0.155,-0.0334948542530657,0.00671903634932209,0.0356967009950975,0
1398.78611111111,-0.15,-0.0291872632160441,0.00653578202485331,0.0356939776924945,0
1398.78888888889,-0.135,-0.025750848559677,0.00638311951370188,0.035690499490442,0
1398.79166666667,-0.135,-0.023885478458204,0.00626852993947606,0.0356863456921189,0
1398.79444444444,-0.14,-0.02410729079149,0.00619812226685572,0.0356816789381348,0
1398.79722222222,-0.15,-0.0266949987824276,0.00617588399539457,0.0356768627137357,0
1398.8,-0.16,-0.0316595957742211,0.00620308815528607,0.0356722423876592,0
1398.80277777778,-0.165,-0.0387403787044779,0.00627793011574999,0.0356680762581442,0
1398.80555555556,-0.18,-0.0474276305657084,0.00639544378826608,0.0356644934908973,0
1398.80833333333,-0.175,-0.0570097060008499,0.00654771742080794,0.0356613782200989,0
1398.81111111111,-0.165,-0.066639902994786,0.00672439752060735,0.0356586416143278,0
1398.81388888889,-0.17,-0.0754166044827745,0.00691343889887797,0.0356562249999985,0
1398.81666666667,-0.14,-0.0824689172953995,0.00710203263414358,0.0356540998032417,0
1398.81944444444,-0.16,-0.0870395394559198,0.00713823478256975,0.0356522659403614,0
1398.82222222222,-0.16,-0.0885568934676412,0.00704223666221241,0.0356507480411213,0
1398.825,-0.15,-0.0866896380875268,0.00692433585979087,0.0356496236236865,0
1398.82777777778,-0.15,-0.0813784054848295,0.0068460591285677,0.0356488113898898,0
1398.83055555556,-0.14,-0.0728418330117015,0.00681028054990367,0.0356482471935036,0
1398.83333333333,-0.13,-0.0615564514644914,0.0068163711830147,0.0356478678601082,0
1398.83611111111,-0.12,-0.0482125123453036,0.00684506058572666,0.0356476171487845,0
1398.83888888889,-0.1,-0.0336501416347685,0.00677004081133984,0.0356474504994995,0
1398.84166666667,-0.08,-0.0187820755396166,0.00667304055260784,0.0356473384391416,0
1398.84444444444,-0.065,-0.00451048653685952,0.00656442573944047,0.0356472693738966,0
1398.84722222222,-0.045,0.00835407197141535,0.0064549132899269,0.0356472487694469,0
1398.85,-0.045,0.0191638334261135,0.00635461752915066,0.0356473418327187,0
1398.85277777778,-0.035,0.0274883390751091,0.00627219826832214,0.0356477704392768,0
1398.85555555556,-0.04,0.0331472118052812,0.00621419111063389,0.0356487540616868,0
1398.85833333333,-0.035,0.0362182271170361,0.00618458016572538,0.0356503627405068,0
1398.86111111111,-0.035,0.0370201461323085,0.00618464698896597,0.0356523335787969,0
1398.86388888889,-0.025,0.0360722366026219,0.00621310001312251,0.0356544817636415,0
1398.86666666667,-0.025,0.0340346707710722,0.0061597408983192,0.0356567671634266,0
1398.86944444444,-0.015,0.0316358348959619,0.00608655652232239,0.035659157088749,0
1398.87222222222,0.02,0.0295938364342691,0.00599950998636483,0.0356616285051098,0
1398.875,0.02,0.0285400314223362,0.00590468291682681,0.0356641677638082,0
1398.87777777778,0.03,0.0289521659560561,0.00580755510665234,0.0356667709391001,0
1398.88055555556,0.015,0.0311037554446215,0.00571240991171927,0.0356694420265742,0
1398.88333333333,0,0.0350347087930247,0.00562193244579567,0.0356722314892351,0
1398.88611111111,-0.02,0.0405460996183615,0.00553704492803369,0.0356751752333086,0
1398.88888888889,-0.035,0.0472195979909919,0.00545699590714183,0.0356783098605444,0
1398.89166666667,-0.025,0.0544596364209011,0.00537969048346037,0.0356816058353964,0
1398.89444444444,-0.03,0.0615541303359303,0.00530222027510153,0.0356850454632525,0
1398.89722222222,-0.015,0.0677477257462085,0.00522152782846457,0.0356886256698387,0
1398.9,-0.005,0.072320285780706,0.00513512313220819,0.0356923279195095,0
1398.90277777778,0.005,0.0746627774929671,0.00517317968378024,0.0356960450461393,0
1398.90555555556,-0.005,0.0743429364421488,0.00527294491720561,0.0356997414504908,0
1398.90833333333,-0.005,0.071154050743359,0.00537641625691815,0.0357033873786808,0
1398.91111111111,-0.01,0.0651418278130002,0.00547866176071819,0.0357069224937046,0
1398.91388888889,-0.015,0.0566064312823928,0.00557271342282675,0.0357102846285258,0
1398.91666666667,-0.035,0.0460791986582644,0.005650048549955,0.0357134149577213,0
1398.91944444444,-0.055,0.0342760386007885,0.00567289514038497,0.0357162631475015,0
1398.92222222222,-0.06,0.022031819017421,0.00565695656448613,0.0357187920828427,0
1398.925,-0.055,0.0102219680297613,0.00568453042943889,0.0357209820713924,0
1398.92777777778,-0.035,-0.000321168872649622,0.00576172609706753,0.0357228334216004,0
1398.93055555556,-0.015,-0.00888907304058528,0.00589171535868439,0.0357243655735758,0
1398.93333333333,-0.005,-0.0149669426471746,0.00607409072004396,0.0357256174755802,0
1398.93611111111,-0.005,-0.0182857344248749,0.00630453088513279,0.0357266508409477,0
1398.93888888889,-0.02,-0.0188510135451947,0.00657482874177363,0.0357276169233347,0
1398.94166666667,-0.03,-0.0169454545343329,0.00687330201597172,0.0357286795488476,0
1398.94444444444,-0.03,-0.0131043532353105,0.00718556789960964,0.0357298734489039,0
1398.94722222222,-0.04,-0.00806611855209705,0.00747356624113185,0.0357310964119829,0
1398.95,-0.035,-0.00270216306678571,0.00754516420074124,0.0357322499179907,0
1398.95277777778,-0.025,0.00206733359605533,0.00738825650542023,0.0357332447698218,0
1398.95555555556,-0.01,0.00536385729470756,0.00717715694652537,0.0357340076041085,0
1398.95833333333,-0.01,0.00643854295089664,0.00702192323974158,0.0357344836284894,0
1398.96111111111,-0.02,0.00474917216339768,0.00692731763057639,0.0357346369134141,0
1398.96388888889,-0.02,1.8576731364394e-05,0.00689315541442473,0.0357344498022489,0
1398.96666666667,-0.025,-0.00773148845520282,0.00691430246195445,0.0357338651563357,0
1398.96944444444,-0.025,-0.0181746754147223,0.00698116443128769,0.0357329887769118,0
1398.97222222222,-0.03,-0.030703599324059,0.00708064135832433,0.0357320163263254,0
1398.975,-0.03,-0.0444808580266643,0.00719747336515575,0.0357311154647254,0
1398.97777777778,-0.03,-0.0585130912795268,0.00731586041712185,0.0357304137654734,0
1398.98055555556,-0.035,-0.0717413762657688,0.00742120585275082,0.0357300149167967,0
1398.98333333333,-0.03,-0.0831395786035299,0.00737039564183788,0.035730061990421,0
1398.98611111111,-0.035,-0.0918113715584923,0.00732184497892436,0.0357305724478739,0
1398.98888888889,-0.035,-0.0970765980859543,0.00730719909345104,0.0357314499361294,0
1398.99166666667,-0.04,-0.0985384978520039,0.00732225395020115,0.0357325450621547,0
1398.99444444444,-0.04,-0.0961249885293475,0.00735677571483815,0.0357336698588266,0
1398.99722222222,-0.05,-0.0900995334019491,0.00739515920628592,0.0357347241617818,0
1399,-0.055,-0.0810399360102638,0.00741769642087891,0.035735692139705,0
1399.00277777778,-0.05,-0.0697864206952944,0.00743302484753791,0.035736559467052,0
1399.00555555556,-0.045,-0.0573633053292726,0.00750837776959461,0.0357373219309253,0
1399.00833333333,-0.02,-0.0448811713161979,0.00766368825558983,0.0357379945680103,0
1399.01111111111,-0.005,-0.0334284362641997,0.00791432074662395,0.035738620196455,0
1399.01388888889,-0.025,-0.0239624384594992,0.00826897623969887,0.0357392760206541,0
1399.01666666667,-0.015,-0.0172104221747819,0.00872805998779667,0.0357400788319114,0
1399.01944444444,-0.01,-0.0135901254212221,0.00928269437182342,0.0357411885749913,0
1399.02222222222,-0.015,-0.0131580625268355,0.0099145090972474,0.0357426877288477,0
1399.025,-0.025,-0.0155911946013659,0.0105962756037905,0.0357441862892164,0
1399.02777777778,-0.035,-0.0202046986058528,0.0112933779919029,0.0357452723736133,0
1399.03055555556,-0.045,-0.0260052449369174,0.0119660353968459,0.035746902662245,0
1399.03333333333,-0.045,-0.0317758727742316,0.0125721176364092,0.0357544447569658,0
1399.03611111111,-0.035,-0.0361855177248691,0.0129038851498312,0.0357697196355378,0
1399.03888888889,-0.02,-0.0379137826042548,0.0128415335648199,0.0357943765020722,0
1399.04166666667,-0.005,-0.0357798874436449,0.0126632530275414,0.035829814741732,0
1399.04444444444,0.01,-0.0288640572719673,0.0126798721719646,0.0358770254387684,0
1399.04722222222,0.025,-0.0166099879915386,0.0128995194384581,0.0359364464579643,0
1399.05,0.035,0.00110154120797034,0.0133174457372046,0.0360076818265866,0
1399.05277777778,0.055,0.0239154744164797,0.0139160468503872,0.0360895966117225,0
1399.05555555556,0.04,0.0510061618139212,0.0146659694161542,0.0361803352213388,0
1399.05833333333,0.065,0.0811227922035594,0.0155282427875518,0.0362773680491417,0
1399.06111111111,0.075,0.112673704227097,0.0164572841173438,0.0363775782138099,0
1399.06388888889,0.075,0.143843135254608,0.0174045388759967,0.0364773929309521,0
1399.06666666667,0.09,0.172730897464829,0.0181546495663147,0.0365790444171751,0
1399.06944444444,0.115,0.19750318873564,0.0186824456989812,0.0366857296967646,0
1399.07222222222,0.15,0.216541473449024,0.0190223599156302,0.0368001071377918,0
1399.075,0.18,0.228576240660918,0.0192356346518324,0.036924184157866,0
1399.07777777778,0.19,0.23279349982299,0.0194046169656876,0.037059335681218,0
1399.08055555556,0.195,0.22890403801238,0.0196247819780122,0.0372061779868645,0
1399.08333333333,0.19,0.217168567509139,0.019847973760252,0.0373646611409545,0
1399.08611111111,0.185,0.198375681414805,0.0199837182748098,0.0375341646705621,0
1399.08888888889,0.17,0.173773684738082,0.0200686575866123,0.0377136312455593,0
1399.09166666667,0.16,0.14496151740379,0.0201431960649261,0.0379017260663833,0
1399.09444444444,0.14,0.113747765191846,0.0202467332698308,0.0380970078259239,0
1399.09722222222,0.12,0.0819898211365977,0.0204127106215097,0.0382980995123682,0
1399.1,0.11,0.0514273258190683,0.0206639299816521,0.038503839742497,0
1399.10277777778,0.11,0.0235248749237488,0.0210086041691739,0.0387121456690175,0
1399.10555555556,0.095,-0.000661467170003405,0.0214375609064049,0.0389178584431055,0
1399.10833333333,0.09,-0.0205810590218199,0.0219229441871649,0.0391201789789803,0
1399.11111111111,0.075,-0.0362391176357042,0.02241864542125,0.0393186392620666,0
1399.11388888889,0.05,-0.0481947128228829,0.0228625589064808,0.0395123687245168,0
1399.11666666667,0.035,-0.0575048448753195,0.0231806027324722,0.0397002782685885,0
1399.11944444444,0.01,-0.0656178951121196,0.0232922894123859,0.0398812074832044,0
1399.12222222222,-0.015,-0.0742243519576836,0.023467095383834,0.0400540095765748,0
1399.125,-0.02,-0.0850767730515365,0.024000720446107,0.0402177237992659,0
1399.12777777778,-0.025,-0.0997940823742392,0.024950103431214,0.0403717381989891,0
1399.13055555556,-0.035,-0.119667227444848,0.0263497213025805,0.0405159176364217,0
1399.13333333333,-0.045,-0.145483739595595,0.0282056437028781,0.0406506934184646,0
1399.13611111111,-0.07,-0.177387770191724,0.0304912886582613,0.0407771102368487,0
1399.13888888889,-0.09,-0.214789762025492,0.0331453506237975,0.0408968243379432,0
1399.14166666667,-0.09,-0.256336225487161,0.036072227954021,0.0410129658760417,0
1399.14444444444,-0.075,-0.299945401894371,0.0391450995776789,0.0411301826748504,0
1399.14722222222,-0.07,-0.342909279246632,0.0422116028976154,0.0412467647187441,0
1399.15,-0.05,-0.38205690630591,0.0451018615550312,0.0413594555990592,0
1399.15277777778,-0.04,-0.413968682090988,0.0476384184703038,0.041464982973877,0
1399.15555555556,-0.05,-0.435226720256632,0.0496474619916025,0.0415602502088195,0
1399.15833333333,-0.055,-0.4426828931362,0.0509706050101443,0.0416425479336639,0
1399.16111111111,-0.07,-0.433724058153595,0.0514763998220735,0.0417099122744464,0
1399.16388888889,-0.1,-0.406513460844437,0.0512884979174784,0.0417610467144707,0
1399.16666666667,-0.115,-0.360188468182,0.0519053603748973,0.0417969565915903,0
1399.16944444444,-0.13,-0.294997553235648,0.0532117360818906,0.0418196252501903,0
1399.17222222222,-0.115,-0.212363636292726,0.0550603451786776,0.0418315895172562,0
1399.175,-0.08,-0.11486618037467,0.0572845881145735,0.0418357542007876,0
1399.17777777778,-0.015,-0.00614043931886989,0.0597123434601848,0.0418379974723028,0
1399.18055555556,0.08,0.10930149857514,0.0621797278806077,0.0418407553122641,0
1399.18333333333,0.22,0.226317226556538,0.0645437046667559,0.0418434684546451,0
1399.18611111111,0.375,0.33943216492845,0.0666925313293431,0.0418461307067187,0
1399.18888888889,0.57,0.443169257845325,0.0685532231686072,0.041850251353046,0
1399.19166666667,0.81,0.532387467002115,0.0700954628414616,0.0418521053459292,0
1399.19444444444,1.04,0.602605324306956,0.0713316846761239,0.0418527699818756,0
1399.19722222222,1.25,0.650286603897104,0.0723133820343373,0.0418544280756526,0
1399.2,1.39,0.67306770367985,0.0731239999437801,0.041857020111066,0
1399.20277777778,1.415,0.669910402067542,0.0732512069276294,0.0418601202149069,0
1399.20555555556,1.31,0.641168969708542,0.0724558914232717,0.0418634776513511,0
1399.20833333333,1.105,0.588566764883033,0.0714968477447376,0.0418668287636155,0
1399.21111111111,0.84,0.515083956005602,0.0702753760221706,0.0418699719373176,0
1399.21388888889,0.53,0.424764398713874,0.0687186732826848,0.0418727371827176,0
1399.21666666667,0.265,0.322455463095018,0.0667887025865138,0.0418749989387383,0
1399.21944444444,0.05,0.213499323068986,0.0644880347468434,0.0418766823748796,0
1399.22222222222,-0.08,0.103397532809017,0.0618621465920053,0.0418779151840935,0
1399.225,-0.145,-0.0025276168132222,0.0589979558301051,0.0418790442250319,0
1399.22777777778,-0.14,-0.0994515575041416,0.056018686093368,0.0418803485034768,0
1399.23055555556,-0.1,-0.183324135076197,0.0530754607572002,0.0418809062810245,0
1399.23333333333,-0.065,-0.25108634406648,0.050336295564915,0.0418779700979144,0
1399.23611111111,-0.055,-0.300813605620313,0.0479733757614449,0.0418718434479678,0
1399.23888888889,-0.055,-0.331777697873723,0.0465087415320945,0.0418644949610478,0
1399.24166666667,-0.085,-0.344425535387956,0.0460814788776408,0.0418586156468531,0
1399.24444444444,-0.095,-0.34027908770517,0.0464385621918521,0.0418523759319001,0
1399.24722222222,-0.12,-0.321766361720222,0.0459449752123735,0.0418438415254894,0
1399.25,-0.13,-0.291998126728313,0.0445858171747821,0.04183087511824,0
1399.25277777778,-0.14,-0.25450858923048,0.0423975912615492,0.0418112265289524,0
1399.25555555556,-0.145,-0.212980283501382,0.0394667712512014,0.0417826910810269,0
1399.25833333333,-0.145,-0.170973909796022,0.0359531140032544,0.0417432817766975,0
1399.26111111111,-0.15,-0.131682728392317,0.0324247393769094,0.041691403071796,0
1399.26388888889,-0.15,-0.0977285325060255,0.0290683049169744,0.0416260132297832,0
1399.26666666667,-0.13,-0.07101241649949,0.026045906715418,0.0415467603066928,0
1399.26944444444,-0.125,-0.0526288583314826,0.0234868769841512,0.0414540806838936,0
1399.27222222222,-0.13,-0.0428464397509638,0.0214822064798821,0.041349250260834,0
1399.275,-0.15,-0.0411532567467535,0.0200818223255566,0.041234381305119,0
1399.27777777778,-0.16,-0.0463601436857397,0.0192947412450679,0.0411123619886717,0
1399.28055555556,-0.215,-0.0567506264893267,0.0190919155555313,0.0409873137195113,0
1399.28333333333,-0.22,-0.0702633442137639,0.0194114090636884,0.0408615890198106,0
1399.28611111111,-0.22,-0.084690754167884,0.019879432785245,0.0407307924956093,0
1399.28888888889,-0.21,-0.0978773759032416,0.0196856629177937,0.040591570708148,0
1399.29166666667,-0.21,-0.107901633296918,0.0189302084076144,0.0404416256677897,0
1399.29444444444,-0.215,-0.113227410288562,0.0177421148554729,0.0402795585169263,0
1399.29722222222,-0.22,-0.112814534860169,0.0163518844646673,0.0401048734118384,0
1399.3,-0.23,-0.106181258998142,0.0150614818931947,0.0399179078120623,0
1399.30277777778,-0.225,-0.0934160680762878,0.0139441549937762,0.0397196970937451,0
1399.30555555556,-0.22,-0.0751404662991841,0.0130505533769053,0.0395117868746759,0
1399.30833333333,-0.22,-0.0524283878150042,0.0124075154441857,0.0392960107336846,0
1399.31111111111,-0.225,-0.026691254866751,0.0120187542010303,0.0390742537605856,0
1399.31388888889,-0.22,0.00045981364809292,0.0118672334042981,0.0388482233531724,0
1399.31666666667,-0.195,0.027361723867753,0.0119189101008872,0.0386192453099521,0
1399.31944444444,-0.185,0.0524438711246001,0.0117683412025494,0.0383879346297164,0
1399.32222222222,-0.175,0.074357020375391,0.0114564063969442,0.0381554783458158,0
1399.325,-0.185,0.0920761559833195,0.0110963408312009,0.0379256309049725,0
1399.32777777778,-0.18,0.104969555812177,0.0107403759224746,0.0376995264198978,0
1399.33055555556,-0.185,0.112829610008889,0.0104335582311682,0.0374788144505872,0
1399.33333333333,-0.19,0.115864434494618,0.010210627916522,0.0372654907303999,0
1399.33611111111,-0.17,0.114652810098882,0.0100940844553658,0.0370616863433039,0
1399.33888888889,-0.165,0.110068110966229,0.0100946717550055,0.0368694343553994,0
1399.34166666667,-0.165,0.103179409645662,0.00998216028507526,0.0366904345903264,0
1399.34444444444,-0.16,0.0951396606486235,0.00977028697500375,0.0365258373157858,0
1399.34722222222,-0.15,0.0870716446909587,0.00948130463577852,0.0363760676412249,0
1399.35,-0.13,0.079962162574457,0.00914308199350602,0.036240704825906,0
1399.35277777778,-0.12,0.0745738470991722,0.00878597258051571,0.036118427481721,0
1399.35555555556,-0.095,0.0713820398938779,0.0084397541760316,0.0360070309236688,0
1399.35833333333,-0.08,0.0705416510066873,0.00813091058450965,0.0359025422971621,0
1399.36111111111,-0.07,0.0718860244477218,0.0078804754447827,0.0358005374742434,0
1399.36388888889,-0.08,0.0749568407656046,0.00770258944483473,0.0356984934206835,0
1399.36666666667,-0.115,0.0790612683666635,0.00760384486928739,0.0356006808961898,0
1399.36944444444,-0.155,0.083350177054134,0.00758341237082578,0.0355113044873865,0
1399.37222222222,-0.16,0.0869094553230713,0.00763387153030449,0.0354332109779515,0
1399.375,-0.155,0.0888554719411836,0.00774260556462863,0.0353681971222449,0
1399.37777777778,-0.145,0.0884255648232388,0.00781001614077782,0.0353172514957551,0
1399.38055555556,-0.12,0.0850551215891885,0.00766952641280703,0.0352805666861645,0
1399.38333333333,-0.08,0.0784342566594078,0.00748617815255921,0.0352575976162956,0
1399.38611111111,-0.045,0.0685391427198356,0.00731013215734505,0.0352471589967667,0
1399.38888888889,-0.045,0.0556355208615584,0.00715292577530416,0.0352420892572881,0
1399.39166666667,-0.085,0.0402545608900241,0.00702187388406549,0.0352358487107323,0
1399.39444444444,-0.135,0.0231438261052193,0.0069198039832417,0.0352287020033433,0
1399.39722222222,-0.175,0.00519838003969591,0.00684532213755022,0.0352208768381395,0
1399.4,-0.19,-0.0126211481650697,0.00683914201123241,0.0352127612746707,0
1399.40277777778,-0.17,-0.0293756034173694,0.00687550417739826,0.0352047352466707,0
1399.40555555556,-0.13,-0.0442311463344252,0.00690484886206686,0.0351969013838883,0
1399.40833333333,-0.095,-0.0565320037078962,0.00693533953659885,0.0351889347880993,0
1399.41111111111,-0.065,-0.0658553735294907,0.006973671605377,0.0351807566504748,0
1399.41388888889,-0.065,-0.0720434850106196,0.00702409161540151,0.0351724588513029,0
1399.41666666667,-0.06,-0.075210016114682,0.0070877788949808,0.0351641990811593,0
1399.41944444444,-0.1,-0.0757205131361825,0.00713300751227927,0.035156176859296,0
1399.42222222222,-0.11,-0.0741489113628021,0.00705201655698375,0.0351483871511463,0
1399.425,-0.105,-0.0712144962269746,0.00697231751579681,0.0351408128062068,0
1399.42777777778,-0.105,-0.0677054653484957,0.00690264054805457,0.0351334320180832,0
1399.43055555556,-0.105,-0.0643964880779151,0.00685181929475492,0.0351262142112032,0
1399.43333333333,-0.12,-0.0619681997265203,0.00682749467430682,0.0351191200912998,0
1399.43611111111,-0.125,-0.060936366046279,0.00683489548024991,0.0351121475935555,0
1399.43888888889,-0.115,-0.061597531270253,0.00687584149925087,0.0351051608457477,0
1399.44166666667,-0.115,-0.0639964075300972,0.00694809339344173,0.0350981619063871,0
1399.44444444444,-0.125,-0.0679182197033694,0.00704513888698392,0.0350913590354491,0
1399.44722222222,-0.115,-0.072906876865856,0.0071564603142531,0.0350849908223213,0
1399.45,-0.11,-0.0783074155478927,0.00726827874108214,0.0350793045257432,0
1399.45277777778,-0.09,-0.0833288741075408,0.00736471960983711,0.0350742832311066,0
1399.45555555556,-0.065,-0.0871218218334527,0.00742929918854923,0.0350697676299203,0
1399.45833333333,-0.055,-0.0888633588530529,0.00744659460345517,0.0350655785402856,0
1399.46111111111,-0.06,-0.0878416533225726,0.00745404589790493,0.0350615338320943,0
1399.46388888889,-0.06,-0.0835320605872132,0.007565026434346,0.0350574649137165,0
1399.46666666667,-0.06,-0.075657578712166,0.00774715937283339,0.0350532310487337,0
1399.46944444444,-0.05,-0.0642277731995786,0.00799694015379402,0.035048730227858,0
1399.47222222222,-0.03,-0.0495522272210391,0.00830427780319036,0.0350439079210168,0
1399.475,0,-0.0322268690638846,0.00865283675988674,0.0350389516907002,0
1399.47777777778,0.02,-0.0130939884473333,0.00902096896105771,0.0350341142664444,0
1399.48055555556,0.015,0.00682084468896722,0.00933757972787187,0.0350295218387174,0
1399.48333333333,0.015,0.0263896192539904,0.00950096336527931,0.0350251218908775,0
1399.48611111111,0.015,0.0444734835618523,0.00949866106814895,0.0350208387353107,0
1399.48888888889,0.01,0.0600170753133656,0.00933728950875527,0.0350165770974161,0
1399.49166666667,0.015,0.0721372303288541,0.00926037733294468,0.0350122159772303,0
1399.49444444444,0.035,0.0801981495926344,0.00930308299187116,0.0350075689864353,0
1399.49722222222,0.055,0.0838662477289691,0.00947147323304223,0.0350024714744841,0
1399.5,0.07,0.0831396631684253,0.00976304214063977,0.0349967925179116,0
1399.50277777778,0.08,0.0783496258382539,0.0100961419284445,0.0349906632022282,0
1399.50555555556,0.105,0.0701333554862923,0.0102952132853967,0.0349842633081863,0
1399.50833333333,0.115,0.059380681959955,0.0103150543148317,0.0349778040841346,0
1399.51111111111,0.1,0.0471589128568806,0.0101252273026286,0.0349716093796557,0
1399.51388888889,0.055,0.0346224147612908,0.00971324015408475,0.0349659888650878,0
1399.51666666667,0.01,0.0229147472470913,0.00914552794905253,0.0349609767364201,0
1399.51944444444,-0.03,0.0130718697855066,0.0086420287901836,0.0349564127141754,0
1399.52222222222,-0.06,0.00593486804084679,0.00822990117209003,0.0349521285476716,0
1399.525,-0.06,0.00207982248435481,0.00792966328854683,0.0349479558844901,0
1399.52777777778,-0.015,0.00177094054428501,0.00775373438206818,0.0349437309451643,0
1399.53055555556,0.02,0.00494102612781473,0.00770563081545471,0.0349393046302632,0
1399.53333333333,0.065,0.0112009487963306,0.00777988142133333,0.0349346300184924,0
1399.53611111111,0.08,0.0198772135162036,0.00796266524742255,0.0349297161304444,0
1399.53888888889,0.06,0.0300742488561323,0.00823311315845046,0.0349246598548832,0
1399.54166666667,0.03,0.0407558482329493,0.00851504904078447,0.0349196280488636,0
1399.54444444444,0.005,0.0508385103199223,0.00854931767503159,0.034914763483271,0
1399.54722222222,-0.01,0.0592883820485864,0.00835031195823568,0.0349101706595331,0
1399.55,0.005,0.0652132042072813,0.00800732200357015,0.0349059065697903,0
1399.55277777778,0.04,0.0679411228780504,0.00771254440266798,0.0349019731364207,0
1399.55555555556,0.06,0.0670794186668302,0.00748365677377169,0.0348983140115287,0
1399.55833333333,0.085,0.0625480136574781,0.00733119547799378,0.0348948161015821,0
1399.56111111111,0.08,0.054584881445891,0.00725795040565493,0.0348914510338968,0
1399.56388888889,0.07,0.0437230055036207,0.00725904365333918,0.0348883231820398,0
1399.56666666667,0.045,0.0307410794836394,0.00732267049482849,0.0348855076461458,0
1399.56944444444,0.035,0.0165924911639169,0.00743142317090861,0.0348830482121746,0
1399.57222222222,0.045,0.0023190685779484,0.00734544136037244,0.0348808551511182,0
1399.575,0.035,-0.0110425816424194,0.00721190121212094,0.0348788357003627,0
1399.57777777778,0.015,-0.0225536691985633,0.00710006625300822,0.0348769667505851,0
1399.58055555556,0.01,-0.0314563943467933,0.00703007998769347,0.0348752625688424,0
1399.58333333333,0.025,-0.0372402220701313,0.00701784809452455,0.0348737372071282,0
1399.58611111111,0.045,-0.0396853266350116,0.00707369040827957,0.0348724076855729,0
1399.58888888889,0.045,-0.0388793617939746,0.00720153573069931,0.034871285140906,0
1399.59166666667,0.055,-0.0352061431170632,0.00739871751417871,0.0348702991042814,0
1399.59444444444,0.07,-0.0293073862594661,0.00765637190929001,0.0348694533562501,0
1399.59722222222,0.045,-0.0220210963228258,0.00790095599497692,0.034868734196259,0
1399.6,0.05,-0.0143023259590677,0.00792083860847596,0.0348681041384911,0
1399.60277777778,0.04,-0.00713362003156473,0.00771228478708906,0.0348675185968894,0
1399.60555555556,0.055,-0.00143339607188283,0.00738391798065127,0.034866932804277,0
1399.60833333333,0.055,0.00202931347451066,0.00708687891999595,0.0348663141457266,0
1399.61111111111,0.07,0.00270592655249135,0.00683724362945956,0.0348656446958729,0
1399.61388888889,0.08,0.000318668183268972,0.00664689395638456,0.0348649216340857,0
1399.61666666667,0.085,-0.0051143827223351,0.0065227794596299,0.0348641598112206,0
1399.61944444444,0.07,-0.0132818163681362,0.00646670260907076,0.0348633142329439,0
1399.62222222222,0.085,-0.0236086908430544,0.00647563190760677,0.0348624077352052,0
1399.625,0.095,-0.0353107800289229,0.00654249405499303,0.0348614872828425,0
1399.62777777778,0.09,-0.0474681661077596,0.0066573479684337,0.0348606195747446,0
1399.63055555556,0.1,-0.0591112599873571,0.00675322132152424,0.0348598841319848,0
1399.63333333333,0.095,-0.0693111561163539,0.00667662668071305,0.0348593644876936,0
1399.63611111111,0.095,-0.0772657988124946,0.00648446887998029,0.0348591388713009,0
1399.63888888889,0.085,-0.0823737996133188,0.00628406606431094,0.0348592709177202,0
1399.64166666667,0.075,-0.0842888710046859,0.00607913074027792,0.0348598005722094,0
1399.64444444444,0.07,-0.0829496324491117,0.00586957311913846,0.0348607330616474,0
1399.64722222222,0.04,-0.0785818391881346,0.00569434145761993,0.0348620325148156,0
1399.65,0.035,-0.0716726742939674,0.00568838299448571,0.0348636264141088,0
1399.65277777778,0.05,-0.062919392227174,0.00589795287747142,0.0348654085546153,0
1399.65555555556,0.08,-0.0531570624126915,0.00618631816742787,0.0348673427943666,0
1399.65833333333,0.11,-0.0432722035227626,0.00651425535014631,0.0348693307172718,0
1399.66111111111,0.1,-0.0341105287169882,0.00688626473033439,0.0348712292208236,0
1399.66388888889,0.085,-0.0263876987194485,0.00730246980220373,0.0348729052388845,0
1399.66666666667,0.04,-0.0206118306647888,0.00775754633989271,0.0348742504316496,0
1399.66944444444,0.025,-0.0170255385841263,0.00824016273870615,0.0348751956976543,0
1399.67222222222,0.02,-0.0155735644907393,0.00873303029285013,0.0348757031618347,0
1399.675,0.05,-0.0158997451270865,0.00921360441474256,0.0348758160058921,0
1399.67777777778,0.085,-0.0173743534093155,0.00965541350453636,0.0348759399736355,0
1399.68055555556,0.14,-0.0191499993761161,0.0100299273182107,0.0348764820483791,0
1399.68333333333,0.16,-0.0202415342905748,0.0103088175627887,0.0348771733544042,0
1399.68611111111,0.17,-0.0196230285149304,0.0103740547558403,0.034877698035595,0
1399.68888888889,0.145,-0.0163331143994293,0.0103583258134446,0.03488324487201,0
1399.69166666667,0.125,-0.00957897471486304,0.0104977867133715,0.0348962372910397,0
1399.69444444444,0.12,0.00117087706309658,0.0107968202235404,0.0349189420985915,0
1399.69722222222,0.11,0.0161141062675352,0.0112498678559693,0.034953336871077,0
1399.7,0.12,0.0350698119387908,0.0118412381647073,0.035000923828726,0
1399.70277777778,0.12,0.0574666334979198,0.0125457932547017,0.0350624637524118,0
1399.70555555556,0.14,0.0823659422767686,0.013330500552028,0.0351379854299629,0
1399.70833333333,0.18,0.108519203921195,0.0141567549849375,0.0352268388626584,0
1399.71111111111,0.23,0.134455456870968,0.0149832995896596,0.0353276105815093,0
1399.71388888889,0.23,0.158592002534845,0.0157695075696598,0.0354380621533791,0
1399.71666666667,0.235,0.179359108835006,0.0164562473606421,0.0355551988564541,0
1399.71944444444,0.24,0.195328010232385,0.0169572992463959,0.0356753921991732,0
1399.72222222222,0.26,0.205330898716516,0.0173113186882648,0.0357960650924295,0
1399.725,0.265,0.208562015870587,0.0175779971903849,0.0359208225251892,0
1399.72777777778,0.255,0.204650361939088,0.0177895197674621,0.036052682182479,0
1399.73055555556,0.245,0.193696830947041,0.0178866976720953,0.0361939309455007,0
1399.73333333333,0.25,0.176271577085347,0.0178961225807713,0.0363460384659648,0
1399.73611111111,0.235,0.153370865930427,0.0178522946109451,0.0365095406381965,0
1399.73888888889,0.225,0.126336268087096,0.0177941130748797,0.0366843086773681,0
1399.74166666667,0.23,0.096742495671485,0.0177607232282924,0.0368695626440567,0
1399.74444444444,0.245,0.066263154051482,0.0177870653860734,0.0370640035832925,0
1399.74722222222,0.245,0.0365259074424467,0.0178995210283779,0.0372660039847892,0
1399.75,0.22,0.00896982182484452,0.0181120666233569,0.0374738180317232,0
1399.75277777778,0.18,-0.0152821836885478,0.0184233268338176,0.0376857920053897,0
1399.75555555556,0.13,-0.0355238182633824,0.0188148644397342,0.0379005783262998,0
1399.75833333333,0.1,-0.0515289312324721,0.0192509576039452,0.0381173361172,0
1399.76111111111,0.1,-0.0635711410134713,0.0196800018320177,0.0383345039854885,0
1399.76388888889,0.1,-0.0723963524894114,0.0200375424354271,0.0385499568456155,0
1399.76666666667,0.105,-0.0791490130002944,0.0202508037087807,0.038762887709705,0
1399.76944444444,0.09,-0.0852570863501585,0.0202571627158573,0.0389719773545939,0
1399.77222222222,0.075,-0.0922845483863285,0.0205544574781763,0.0391755233617693,0
1399.775,0.05,-0.101763389039328,0.021203039901964,0.0393716124749119,0
1399.77777777778,0.03,-0.115019353697872,0.0222455616393586,0.0395583222830934,0
1399.78055555556,0.01,-0.133006753818096,0.0237010074130354,0.0397339347558897,0
1399.78333333333,0.03,-0.156167497952873,0.0255600418478122,0.0398971423219447,0
1399.78611111111,0.04,-0.184328020358553,0.0277821432292128,0.0400472284495667,0
1399.78888888889,0.055,-0.21664510425737,0.0302948861444216,0.0401840823396711,0
1399.79166666667,0.05,-0.251607903310505,0.0329955891486844,0.0403083439179967,0
1399.79444444444,0.025,-0.287099039545963,0.0357553734814875,0.0404218427352467,0
1399.79722222222,0.015,-0.320512847608243,0.0384254967654231,0.0405291703788602,0
1399.8,0.02,-0.348924031619723,0.0408456452697958,0.0406349857258308,0
1399.80277777778,0.05,-0.369295597602728,0.0428537037570389,0.0407422410380906,0
1399.80555555556,0.055,-0.378711291684054,0.0442963864331535,0.0408470264705653,0
1399.80833333333,0.06,-0.374615226547334,0.0450400175430644,0.0409453802542819,0
1399.81111111111,0.075,-0.355040147448036,0.044980704362133,0.0410335395654035,0
1399.81388888889,0.08,-0.318806003296498,0.0454236022818531,0.0411083166979344,0
1399.81666666667,0.085,-0.265672161757136,0.0465855944430505,0.0411689063908678,0
1399.81944444444,0.085,-0.19642963647718,0.0483456256053756,0.0412151969136161,0
1399.82222222222,0.09,-0.112923865453041,0.0505575634657956,0.0412478374358435,0
1399.825,0.13,-0.0180035837724188,0.0530619948668979,0.0412681656217304,0
1399.82777777778,0.185,0.0846032073776702,0.0556986259675329,0.0412780783199589,0
1399.83055555556,0.255,0.190479680118896,0.058318296868808,0.0412833000399033,0
1399.83333333333,0.37,0.294765431283576,0.0607936629940378,0.0412887738069097,0
1399.83611111111,0.56,0.392440641092545,0.0630277138805159,0.0412937970617186,0
1399.83888888889,0.795,0.478630060688443,0.0649594849166621,0.0412983692556061,0
1399.84166666667,1.055,0.548905966599491,0.0665665534831507,0.0413023759607085,0
1399.84444444444,1.31,0.599568975682755,0.0678641783346796,0.0413061166322187,0
1399.84722222222,1.495,0.627886938381052,0.0689012178032533,0.0413099659379474,0
1399.85,1.57,0.632274929483905,0.0694707385242878,0.0413138632880592,0
1399.85277777778,1.5,0.61240342777585,0.0688808601775876,0.0413174740337954,0
1399.85555555556,1.27,0.569226814448128,0.0681123575981948,0.041320357413036,0
1399.85833333333,0.995,0.504929946082155,0.0672390905302261,0.0413220553325778,0
1399.86111111111,0.685,0.42279634800975,0.0661790500087473,0.0413221908580062,0
1399.86388888889,0.405,0.327007093243008,0.0648737631334445,0.0413205669203672,0
1399.86666666667,0.185,0.222384268918911,0.0632953151734881,0.0413172545731239,0
1399.86944444444,0.035,0.114096728883118,0.0614506429296997,0.0413126616477911,0
1399.87222222222,-0.02,0.00734831219831766,0.059382734492813,0.0413075742096953,0
1399.875,-0.005,-0.0929302997450041,0.0571686288910637,0.0413016329462568,0
1399.87777777778,0.045,-0.182365467855526,0.0549143744434106,0.0412934674951627,0
1399.88055555556,0.085,-0.257381640295175,0.0527473551350705,0.0412812525704184,0
1399.88333333333,0.1,-0.315384326972517,0.0508066096373597,0.0412629718920794,0
1399.88611111111,0.105,-0.35487416564248,0.0492319304139417,0.0412365492591313,0
1399.88888888889,0.08,-0.375486331689201,0.0483582700098133,0.0412000011949554,0
1399.89166666667,0.04,-0.377954938734194,0.0485314084022278,0.0411516006560455,0
1399.89444444444,0,-0.364007369385048,0.0483258237539068,0.0410900620953406,0
1399.89722222222,-0.04,-0.336198272816777,0.0473985125198156,0.0410149552301119,0
1399.9,-0.055,-0.297696922659707,0.0457508106720381,0.0409265050147614,0
1399.90277777778,-0.045,-0.25204447101935,0.0434269899078901,0.0408255469773437,0
1399.90555555556,-0.01,-0.202899180177462,0.0405122886713375,0.0407136794731572,0
1399.90833333333,0.035,-0.153787884097236,0.0371279120172022,0.0405932449384348,0
1399.91111111111,0.065,-0.107880756025725,0.0334233910928827,0.040467261237405,0
1399.91388888889,0.05,-0.0678040673117759,0.0299179266987651,0.0403393028731032,0
1399.91666666667,0.04,-0.0355022364847455,0.0268348096179697,0.0402123710495997,0
1399.91944444444,0.035,-0.0121563768307098,0.0243036491684486,0.0400827897424223,0
1399.92222222222,0.04,0.00183790964672462,0.0224138645273802,0.0399473860906524,0
1399.925,0.03,0.00683522125086535,0.0212118993261596,0.0398036409656251,0
1399.92777777778,0.005,0.00385341027229138,0.0207012617521821,0.0396497826998127,0
1399.93055555556,0.045,-0.00555559421058288,0.0208452388350865,0.0394850094560112,0
1399.93333333333,0.11,-0.0194651411173298,0.0215719631307745,0.0393093242762287,0
1399.93611111111,0.16,-0.0357497286564058,0.021819468138817,0.0391233323237481,0
1399.93888888889,0.1,-0.052263243436831,0.0214737073679003,0.038928091881657,0
1399.94166666667,0.01,-0.0670060393489446,0.0206223414477875,0.0387249138860233,0
1399.94444444444,-0.055,-0.0782689582556601,0.0193768027817062,0.0385151796568215,0
1399.94722222222,-0.085,-0.0847448596098337,0.0178632466932434,0.0383001945699111,0
1399.95,-0.09,-0.0856012928403634,0.0162128697647031,0.0380810194508808,0
1399.95277777778,-0.12,-0.0805113435849751,0.0147073815600168,0.037858333464007,0
1399.95555555556,-0.14,-0.0696431269847185,0.0135007006234369,0.037635087768299,0
1399.95833333333,-0.155,-0.0536116119103092,0.012633987835089,0.0374153197820174,0
1399.96111111111,-0.12,-0.033399194061645,0.0121215660795275,0.0371998380553345,0
1399.96388888889,-0.105,-0.0102534982197007,0.011952426319621,0.0369898592939762,0
1399.96666666667,-0.065,0.0144278508049173,0.0120933091923246,0.0367868857505011,0
1399.96944444444,-0.04,0.0392153522558653,0.0122873850168028,0.03659254753143,0
1399.97222222222,-0.015,0.0627589638758094,0.0122330915915471,0.0364084235367107,0
1399.975,0.005,0.0838841784581867,0.0119921745289582,0.0362358565759854,0
1399.97777777778,0.01,0.101666212669873,0.011638498348678,0.0360757787461332,0
1399.98055555556,0.015,0.115477951143674,0.0112509470867546,0.0359285964288987,0
1399.98333333333,0.035,0.125009781467674,0.0109063780675346,0.0357941800914952,0
1399.98611111111,0.045,0.13026194574414,0.0106732010827751,0.0356716639215925,0
1399.98888888889,0.03,0.131512310896696,0.0106060757581021,0.0355594255022656,0
1399.99166666667,0.005,0.129264340761087,0.0107421028597929,0.0354535303846695,0
1399.99444444444,0.015,0.124181399207955,0.0107477109117911,0.0353494325098962,0
1399.99722222222,0.025,0.117014239243015,0.010572967456039,0.03524370965067,0
1400,0.005,0.108528610500263,0.0102393408132494,0.0351402028175319,0
1400.00277777778,-0.03,0.0994393770601167,0.00977809635682031,0.0350428123576433,0
1400.00555555556,-0.03,0.0903564621475714,0.00922734344911438,0.0349552670050656,0
1400.00833333333,0.025,0.0817464522591294,0.00862891625305042,0.034880856380773,0
1400.01111111111,0.095,0.0739119571086709,0.00802532042021163,0.0348220065177623,0
1400.01388888889,0.095,0.0669890050170024,0.00745694601259563,0.0347786294382603,0
1400.01666666667,0.08,0.0609610267060516,0.00695970355888918,0.0347498307938872,0
1400.01944444444,0.07,0.0556864985214042,0.00656318974203388,0.0347340287217829,0
1400.02222222222,0.05,0.0509362041666704,0.00628943685771982,0.0347291283278481,0
1400.025,-0.02,0.0464354178179806,0.00615225054483586,0.0347326860374677,0
1400.02777777778,-0.09,0.0419061508793229,0.00615709732293399,0.0347352190335979,0
1400.03055555556,-0.115,0.0371049316997606,0.00630147011303488,0.0347372317931662,0
1400.03333333333,-0.065,0.0318523489364246,0.00642060547095943,0.0347392268543865,0
1400.03611111111,-0.04,0.0260516925529811,0.00645809530012599,0.0347416620960132,0
1400.03888888889,-0.025,0.0196953501194698,0.00644480269763937,0.0347446180582941,0
1400.04166666667,-0.02,0.0128590215072481,0.00640892740008273,0.034747541368162,0
1400.04444444444,0,0.0056851599887758,0.00637275951327222,0.0347499827127749,0
1400.04722222222,0.04,-0.0016418003499875,0.00635020024166541,0.0347516244789004,0
1400.05,0.075,-0.00892502264861042,0.00634527924264189,0.0347523584205201,0
1400.05277777778,0.125,-0.0159857764476907,0.00635179749085773,0.0347523370806478,0
1400.05555555556,0.14,-0.0226909598725808,0.00635411377647965,0.0347517988980377,0
1400.05833333333,0.115,-0.0289740933954639,0.00632898244324695,0.0347510428219768,0
1400.06111111111,0.06,-0.0348469982241566,0.00624824976192129,0.0347503997611019,0
1400.06388888889,0.01,-0.0404004254745215,0.00608675760576549,0.0347500591040642,0
1400.06666666667,0.005,-0.0457931463158338,0.00605572294055652,0.0347501537042739,0
1400.06944444444,0.01,-0.0512303223813155,0.00615848645892537,0.0347507819246994,0
1400.07222222222,0.015,-0.0569332178967367,0.00639240568079872,0.0347517348631747,0
1400.075,0,-0.0631033644956991,0.00674862222173112,0.0347528303395415,0
1400.07777777778,0.025,-0.0698850389885267,0.00721204650889353,0.0347539677332575,0
1400.08055555556,0.05,-0.0773302841021361,0.00776160900925457,0.034755090189339,0
1400.08333333333,0.065,-0.0853706488247778,0.00837082058806362,0.0347561828119354,0
1400.08611111111,0.045,-0.0937993448607255,0.0090086703231384,0.0347572671103667,0
1400.08888888889,0.01,-0.102266645777485,0.00964086750359997,0.0347584365474305,0
1400.09166666667,0.035,-0.110290170126203,0.0102314071264899,0.034759945265895,0
1400.09444444444,0.065,-0.117280294500907,0.0107444072884117,0.0347617616547546,0
1400.09722222222,0.055,-0.12257946414811,0.0111461353957939,0.0347637728962425,0
1400.1,-0.015,-0.125512744574313,0.0114071113785091,0.0347658768791577,0
1400.10277777778,-0.06,-0.125445722748097,0.0115041534013122,0.0347679912950563,0
1400.10555555556,-0.06,-0.121844941690468,0.011422217919084,0.0347700605820888,0
1400.10833333333,-0.025,-0.114335532719114,0.011316640394223,0.0347720594726111,0
1400.11111111111,0.045,-0.102750656105224,0.0113872067095884,0.0347739955925934,0
1400.11388888889,0.085,-0.0871677936548485,0.0116024819567934,0.0347759065633306,0
1400.11666666667,0.135,-0.067927832943695,0.0119217223950424,0.0347778520399629,0
1400.11944444444,0.17,-0.0456341779997135,0.0122985066281851,0.034779869309837,0
1400.12222222222,0.19,-0.0211307136020293,0.012684899933138,0.034781972517199,0
1400.125,0.165,0.0045407902336116,0.0130357897546733,0.0347841589750302,0
1400.12777777778,0.125,0.0302014688057603,0.0133130096807922,0.0347864102333003,0
1400.13055555556,0.14,0.0546103401681903,0.0134888818666085,0.0347886328919697,0
1400.13333333333,0.145,0.0765480986630028,0.0135488531704728,0.0347906144155065,0
1400.13611111111,0.16,0.0949033972019781,0.0134929746642556,0.0347922739281712,0
1400.13888888889,0.175,0.108754834223601,0.0133360715943809,0.0347935812399752,0
1400.14166666667,0.2,0.117441957713584,0.0133632848188738,0.0347945308863657,0
1400.14444444444,0.255,0.12061925597933,0.0136258387713254,0.034795284185728,0
1400.14722222222,0.31,0.118288283358985,0.0138742742323746,0.0347960501680053,0
1400.15,0.305,0.110804684147907,0.0140581540327186,0.0347970342782662,0
1400.15277777778,0.245,0.0988588064635417,0.0141285297079948,0.0347982381005846,0
1400.15555555556,0.175,0.0834306871553584,0.0140427251350021,0.0347996281781224,0
1400.15833333333,0.135,0.065722269901392,0.0137687220222988,0.0348011280251098,0
1400.16111111111,0.125,0.0470716189441497,0.0132887523253558,0.0348026621281625,0
1400.16388888889,0.1,0.028855449396983,0.0126017620042445,0.0348041604158224,0
1400.16666666667,0.065,0.0123873755035883,0.0117244997791486,0.034805561917199,0
1400.16944444444,0.075,-0.00118021880184513,0.0109882009850085,0.034806816646289,0
1400.17222222222,0.095,-0.010942910962627,0.0104447997941867,0.0348078642904379,0
1400.175,0.105,-0.0163125586570331,0.0101167029250905,0.0348086783791538,0
1400.17777777778,0.095,-0.01706153927787,0.0100112537253066,0.0348094026574494,0
1400.18055555556,0.075,-0.0133390753413734,0.0101203776428965,0.0348101649249422,0
1400.18333333333,0.055,-0.00565798889406077,0.0104213720286935,0.034811062297002,0
1400.18611111111,0.055,0.00514742053399466,0.0108787911572276,0.0348121491303437,0
1400.18888888889,0.06,0.0179893437153242,0.0112865348913866,0.0348134291612239,0
1400.19166666667,0.12,0.0316151149122262,0.0113983596781017,0.034814851355633,0
1400.19444444444,0.175,0.0447096447458122,0.0112079964800294,0.0348163135791957,0
1400.19722222222,0.235,0.0560035151885702,0.0107311565465293,0.0348176721564463,0
1400.2,0.225,0.0643780489212052,0.0102361175292929,0.0348188955929928,0
1400.20277777778,0.185,0.0689587940066602,0.00986936101911307,0.0348200073500818,0
1400.20555555556,0.135,0.0691896933145211,0.00965457194651833,0.0348210208621205,0
1400.20833333333,0.12,0.0648816797724362,0.00960114741994523,0.0348219391757151,0
1400.21111111111,0.135,0.0562314429438378,0.00970352074457516,0.0348227575931082,0
1400.21388888889,0.14,0.043808493652815,0.00994168792438124,0.0348235049261765,0
1400.21666666667,0.13,0.0285112219075721,0.0102829002675341,0.0348243017185289,0
1400.21944444444,0.115,0.0114951912758442,0.0106843934496434,0.0348252537666065,0
1400.22222222222,0.085,-0.00592076940225364,0.010840218098926,0.0348264741634645,0
1400.225,0.07,-0.0223632223954869,0.0106824912803701,0.0348280779887429,0
1400.22777777778,0.055,-0.0365187633064438,0.0104006833227513,0.0348301784791777,0
1400.23055555556,0.055,-0.0472452813322606,0.0102525942377138,0.0348325689472746,0
1400.23333333333,0.05,-0.0536706262725282,0.010271897228721,0.0348351378042576,0
1400.23611111111,0.065,-0.055270387509209,0.010479457135173,0.0348377030301009,0
1400.23888888889,0.085,-0.0519181017550991,0.0108813759907809,0.0348400751821637,0
1400.24166666667,0.115,-0.0439033895930708,0.0114682022455377,0.0348420757198832,0
1400.24444444444,0.145,-0.0319161031511517,0.0122153705533272,0.0348437245757624,0
1400.24722222222,0.155,-0.0169973405283769,0.0130848401367596,0.0348450890018365,0
1400.25,0.145,-0.000460919808675617,0.0137306988391437,0.0348462635075449,0
1400.25277777778,0.145,0.0162086205664828,0.0140945763697526,0.0348473632282789,0
1400.25555555556,0.13,0.031473426212323,0.0141566706885622,0.0348484659719788,0
1400.25833333333,0.13,0.0438657091143292,0.0139211715665591,0.0348495386430172,0
1400.26111111111,0.155,0.0521070878800216,0.0134155880709179,0.0348505278554912,0
1400.26388888889,0.22,0.0552140965892129,0.0129419742783027,0.034851364159958,0
1400.26666666667,0.275,0.0525811179321026,0.0126929586779185,0.0348519671578916,0
1400.26944444444,0.295,0.0440337782168603,0.012684219528771,0.0348522929806164,0
1400.27222222222,0.25,0.0298482202807515,0.0129158765392945,0.0348524390523919,0
1400.275,0.2,0.0107344531600573,0.0133727338439093,0.0348524961664488,0
1400.27777777778,0.14,-0.01221506409533,0.0140256909271528,0.0348525410062833,0
1400.28055555556,0.055,-0.0376075592159135,0.0146029983814175,0.0348526280099929,0
1400.28333333333,0,-0.0638561852272618,0.0149655577519387,0.0348527829359364,0
1400.28611111111,-0.03,-0.0893017024546627,0.01510782705251,0.0348530085915667,0
1400.28888888889,-0.005,-0.112339618365887,0.0150481482346675,0.0348532896895989,0
1400.29166666667,0.06,-0.131542303582145,0.014827252849893,0.0348535993351106,0
1400.29444444444,0.125,-0.145765988118646,0.0145047163691881,0.0348538711877027,0
1400.29722222222,0.14,-0.154233785325798,0.0141536400668481,0.0348538769552482,0
1400.3,0.105,-0.156587894583932,0.0138539984129631,0.0348563816394579,0
1400.30277777778,0.06,-0.152906733891675,0.0136852138183361,0.0348610071718171,0
1400.30555555556,0.055,-0.143685733309583,0.0137185979973751,0.0348670793063488,0
1400.30833333333,0.05,-0.129783627723906,0.0138287378722376,0.0348735563171628,0
1400.31111111111,0.035,-0.112339056392905,0.013824491707163,0.0348803400521179,0
1400.31388888889,-0.015,-0.0926648496188085,0.0137348804056572,0.034889296631309,0
1400.31666666667,-0.03,-0.0721293329680678,0.0135915908668065,0.0349025306643542,0
1400.31944444444,-0.01,-0.0520351310402805,0.0134256864650763,0.0349222701168205,0
1400.32222222222,0.045,-0.0335061971331373,0.0132645562743318,0.034950726441641,0
1400.325,0.115,-0.0173931009746505,0.0131293838681465,0.0349897861086388,0
1400.32777777778,0.115,-0.00420502406931025,0.013033363651008,0.0350411392406774,0
1400.33055555556,0.125,0.00592543049193271,0.0129808189611215,0.0351060670328409,0
1400.33333333333,0.125,0.013241412926649,0.0129672883361543,0.0351852655645374,0
1400.33611111111,0.135,0.018325005804629,0.0129805523796727,0.0352787289673988,0
1400.33888888889,0.145,0.0220276807439701,0.0130024822630008,0.0353856681614004,0
1400.34166666667,0.135,0.0253743062654801,0.0130115105517894,0.035504475635932,0
1400.34444444444,0.14,0.0294494561668013,0.0130375577545167,0.0356327409400451,0
1400.34722222222,0.145,0.0352764911949226,0.0131185654314522,0.0357673210611178,0
1400.35,0.2,0.0437006921230025,0.013269477778895,0.0359044192575534,0
1400.35277777778,0.25,0.0552875223154422,0.0134981755799293,0.0360407632586838,0
1400.35555555556,0.24,0.0702458928094681,0.0138041193909956,0.0361801843050783,0
1400.35833333333,0.17,0.0883841824146781,0.0141779218755538,0.0363260189136629,0
1400.36111111111,0.11,0.109103902003672,0.0146019217451898,0.0364809750465568,0
1400.36388888889,0.105,0.131432528235647,0.0150517314552615,0.0366469323269809,0
1400.36666666667,0.14,0.15409345916603,0.0154986303186818,0.0368249150465922,0
1400.36944444444,0.155,0.175607579070546,0.0159125835711762,0.0370151329370927,0
1400.37222222222,0.155,0.194417876162754,0.0162655950632755,0.0372170856513457,0
1400.375,0.195,0.209026217961289,0.0165350541582077,0.0374297213818412,0
1400.37777777778,0.265,0.218129981784957,0.0167067214240077,0.0376516357071117,0
1400.38055555556,0.325,0.22074591141796,0.016777015475234,0.037881290599449,0
1400.38333333333,0.33,0.216309381846612,0.0167543144881587,0.0381171920001935,0
1400.38611111111,0.27,0.204739158633389,0.0166590670578643,0.0383580239859765,0
1400.38888888889,0.215,0.186460594971872,0.0165226119035313,0.0386029631519827,0
1400.39166666667,0.175,0.162383787410876,0.0163847257894589,0.0388486471172272,0
1400.39444444444,0.17,0.133837210115855,0.0162900435521598,0.039089658147223,0
1400.39722222222,0.13,0.102461421412929,0.0162836121193022,0.0393250118379656,0
1400.4,0.1,0.0700712232656963,0.0164059408220267,0.0395532748233053,0
1400.40277777778,0.105,0.0384978077664748,0.0166879832038252,0.0397727853180543,0
1400.40555555556,0.165,0.00942464456880012,0.0171465230141312,0.0399817794741478,0
1400.40833333333,0.21,-0.0157680766588803,0.0177804340379348,0.0401784746650401,0
1400.41111111111,0.18,-0.0361358644910009,0.0185682380934076,0.0403613659719372,0
1400.41388888889,0.12,-0.0512661606787519,0.0194672997865162,0.0405294686906492,0
1400.41666666667,0.08,-0.0613281042649329,0.020414875895057,0.0406824922658085,0
1400.41944444444,0.065,-0.0670693066898354,0.0213310902685364,0.0408209629989054,0
1400.42222222222,0.035,-0.069757603586163,0.0221237432063778,0.0409462831864129,0
1400.425,0,-0.0710705780089451,0.0223887329471147,0.0410607201192521,0
1400.42777777778,-0.025,-0.0729404135614097,0.0221359779199005,0.0411679691533153,0
1400.43055555556,-0.01,-0.0773659171813899,0.0222881022428007,0.0412725314662029,0
1400.43333333333,0.01,-0.0862069624921566,0.0229137340980399,0.0413776502150191,0
1400.43611111111,0.035,-0.10097882143331,0.0240558816438509,0.0414788702154881,0
1400.43888888889,0.05,-0.122664643417531,0.0257256667434199,0.0415716971206062,0
1400.44166666667,0.085,-0.151563592078681,0.0278979575219785,0.041652789886061,0
1400.44444444444,0.11,-0.187189872809531,0.0305093800333429,0.0417202755474456,0
1400.44722222222,0.085,-0.228234223430219,0.0334590315187624,0.0417731300950794,0
1400.45,0.055,-0.272594660943446,0.0366120265870948,0.0418111635901742,0
1400.45277777778,0.035,-0.317477747135804,0.0398057969602379,0.0418349559099393,0
1400.45555555556,0.035,-0.359565796082023,0.0428588510827027,0.0418457513114835,0
1400.45833333333,0.005,-0.395239776736593,0.0455814985888262,0.0418473652507317,0
1400.46111111111,-0.075,-0.420842641566996,0.0477878725666105,0.0418508648972582,0
1400.46388888889,-0.155,-0.432963873619713,0.0493084541671572,0.0418558322332343,0
1400.46666666667,-0.215,-0.428723546195699,0.0500022308039725,0.0418618122329358,0
1400.46944444444,-0.215,-0.406033377170078,0.0501078990186877,0.0418683257087141,0
1400.47222222222,-0.175,-0.363813245807144,0.0510190474948142,0.0418748719839316,0
1400.475,-0.09,-0.302144389683606,0.0526064203377947,0.0418810453713527,0
1400.47777777778,0.015,-0.222344833093179,0.0547074531533512,0.0418872383578245,0
1400.48055555556,0.12,-0.126958202367746,0.057140081863229,0.0418937637920645,0
1400.48333333333,0.225,-0.0196535340389569,0.0597177883116348,0.0419006562926669,0
1400.48611111111,0.35,0.0949595222358824,0.0622646419387955,0.0419078692875603,0
1400.48888888889,0.46,0.211589100445204,0.064629098323907,0.041915323163367,0
1400.49166666667,0.525,0.324576229098475,0.0666954204277818,0.0419229220372417,0
1400.49444444444,0.585,0.428245094837703,0.0683917885842837,0.0419305682945905,0
1400.49722222222,0.7,0.517263816101468,0.0696944442877319,0.0419381737543465,0
1400.5,0.895,0.586989863882114,0.0706275474313103,0.0419456396987505,0
1400.50277777778,1.135,0.633775027194295,0.071258788870184,0.0419528016493068,0
1400.50555555556,1.305,0.655207524084721,0.0716911595385277,0.0419595284983606,0
1400.50833333333,1.38,0.650273310305514,0.0717591670992576,0.0419658379281948,0
1400.51111111111,1.33,0.619424500877865,0.0713332232603038,0.0419718183869691,0
1400.51388888889,1.155,0.564549643120664,0.0707082900506497,0.0419775002834716,0
1400.51666666667,0.915,0.488847832528372,0.0697689274048911,0.0419828494173216,0
1400.51944444444,0.625,0.396615777957697,0.0684303163550566,0.0419877615220839,0
1400.52222222222,0.36,0.292963342292778,0.0666481856268103,0.0419920838341206,0
1400.525,0.16,0.183478306374267,0.0644252109420901,0.0419960744967329,0
1400.52777777778,-0.03,0.0738647205853471,0.0618133024935689,0.042000044173655,0
1400.53055555556,-0.19,-0.030419057940251,0.0589115439094881,0.0420029745708271,0
1400.53333333333,-0.275,-0.124496820671165,0.0558599146812917,0.0419995248380713,0
1400.53611111111,-0.28,-0.204361885017379,0.0528292862868643,0.0419879136664403,0
1400.53888888889,-0.225,-0.267095856835725,0.0500084997739008,0.0419665311448237,0
1400.54166666667,-0.155,-0.311004723393463,0.0476187241132102,0.0419340817031111,0
1400.54444444444,-0.07,-0.335664704828149,0.0462294208528952,0.0418897204058331,0
1400.54722222222,-0.01,-0.341877251513331,0.0458541601198311,0.0418331700887169,0
1400.55,0.015,-0.331539453817372,0.0461097792629115,0.0417648106169086,0
1400.55277777778,-0.005,-0.307442385534405,0.0454553047574987,0.0416857327904233,0
1400.55555555556,-0.09,-0.273015046137867,0.0438840057428034,0.0415977485875111,0
1400.55833333333,-0.17,-0.232035209992642,0.0414471905427287,0.0415033536350533,0
1400.56111111111,-0.22,-0.18833037038635,0.038281918089635,0.0414056274178918,0
1400.56388888889,-0.235,-0.145491967914447,0.0349323935975774,0.0413081075218086,0
1400.56666666667,-0.225,-0.106624256646724,0.031590573136651,0.0412085602132429,0
1400.56944444444,-0.185,-0.0741456773757456,0.0284318764685533,0.0411037859139786,0
1400.57222222222,-0.15,-0.0496557963401687,0.0256054995788936,0.0409911240840373,0
1400.575,-0.135,-0.0338751540393358,0.0232270740622742,0.0408685668444065,0
1400.57777777778,-0.13,-0.0266592416515112,0.0213740439982737,0.0407348197294246,0
1400.58055555556,-0.13,-0.0270817952721295,0.0200839199117784,0.0405893066138361,0
1400.58333333333,-0.14,-0.0335771640351764,0.019355356123448,0.0404320878992221,0
1400.58611111111,-0.16,-0.0441270996667413,0.0191517982666423,0.0402637824729945,0
1400.58888888889,-0.18,-0.0564742685952807,0.0194072763462458,0.040085433786858,0
1400.59166666667,-0.19,-0.0683433173659569,0.0193208355565515,0.0398983517100714,0
1400.59444444444,-0.19,-0.0776505036969934,0.0185548076412696,0.0397039444696368,0
1400.59722222222,-0.19,-0.0826846734871207,0.0174964366057515,0.0395035545778768,0
1400.6,-0.2,-0.0822455200561631,0.0163791830685351,0.0392983124248802,0
1400.60277777778,-0.195,-0.0757292946609149,0.0152962674921906,0.0390903913395386,0
1400.60555555556,-0.205,-0.0631570521092697,0.0143246258191223,0.0388851257646969,0
1400.60833333333,-0.19,-0.0451456696951816,0.0135208159409464,0.0386834355529985,0
1400.61111111111,-0.195,-0.0228268209697167,0.0129188635144748,0.0384857713549753,0
1400.61388888889,-0.195,0.0022766017792348,0.0125300636262539,0.0382929362835057,0
1400.61666666667,-0.19,0.0284037942694355,0.0123446020933171,0.0381059821752975,0
1400.61944444444,-0.175,0.0537241675794164,0.0123347273830125,0.0379260759090282,0
1400.62222222222,-0.155,0.0765046842755755,0.0124299590095037,0.0377543482624372,0
1400.625,-0.15,0.0952614878628946,0.0122211759608679,0.0375917381364915,0
1400.62777777778,-0.15,0.108882898856578,0.0119809631056201,0.0374388453183937,0
1400.63055555556,-0.165,0.116713913651402,0.0117602728461404,0.0372958042129922,0
1400.63333333333,-0.185,0.118596172391194,0.0116034593210371,0.0371621921766888,0
1400.63611111111,-0.19,0.11486159302468,0.011544639914392,0.037036980076268,0
1400.63888888889,-0.175,0.106282109458731,0.0116052231892404,0.036918530270049,0
1400.64166666667,-0.17,0.0939818215664293,0.0117624391433008,0.0368037428883566,0
1400.64444444444,-0.155,0.0793210276135074,0.0116212033252945,0.0366881166060543,0
1400.64722222222,-0.16,0.063763802812884,0.0112111193561418,0.0365733458024831,0
1400.65,-0.18,0.0487418439095835,0.0107279975445133,0.03646257763046,0
1400.65277777778,-0.185,0.0355271596324128,0.0102078250701623,0.0363589500793432,0
1400.65555555556,-0.21,0.0251249017867457,0.0096901989681696,0.0362654066610048,0
1400.65833333333,-0.205,0.0181953559977543,0.0092147228339474,0.0361845198314664,0
1400.66111111111,-0.19,0.0150110852088914,0.00881759983124461,0.0361183623599878,0
1400.66388888889,-0.195,0.015451745561499,0.00852869385241278,0.0360684754389273,0
1400.66666666667,-0.19,0.0190355083908773,0.00836927300465714,0.036034107150934,0
1400.66944444444,-0.18,0.0249826597945052,0.00835057800586392,0.0360133903262772,0
1400.67222222222,-0.175,0.0323041163371867,0.00847327960225977,0.036003840235608,0
1400.675,-0.185,0.0399055398755161,0.00872781092846832,0.0360025564367987,0
1400.67777777778,-0.19,0.0466966246362471,0.00883793227592896,0.0360036160139954,0
1400.68055555556,-0.19,0.0516950407349555,0.00870103887283132,0.0360044930507419,0
1400.68333333333,-0.17,0.0541154274080201,0.0083635029836198,0.0360056186892526,0
1400.68611111111,-0.155,0.0534356199618036,0.00788534230384433,0.036006842519318,0
1400.68888888889,-0.15,0.0494347700849404,0.00736417057360164,0.0360065559288933,0
1400.69166666667,-0.15,0.0422009231156562,0.0068864569024296,0.0360075605997347,0
1400.69444444444,-0.165,0.0321086573244921,0.00647965276191651,0.0360095835779374,0
1400.69722222222,-0.185,0.0197702727267352,0.00616538905273568,0.0360112929391967,0
1400.7,-0.185,0.00596646649513503,0.00595843751300144,0.0360124916867228,0
1400.70277777778,-0.185,-0.00843577681490112,0.00586623150406032,0.0360130604846906,0
1400.70555555556,-0.17,-0.0225693758173064,0.00585853531157476,0.0360130712287649,0
1400.70833333333,-0.165,-0.0356486318459863,0.00574238680000167,0.0360126921528941,0
1400.71111111111,-0.14,-0.0470379929362898,0.00555915356935106,0.0360121082964753,0
1400.71388888889,-0.135,-0.05630166013613,0.00536001977770585,0.0360115115114033,0
1400.71666666667,-0.115,-0.0632297585790027,0.00520015715229149,0.0360110853439674,0
1400.71944444444,-0.105,-0.0678393334551202,0.00513258024797036,0.0360109919960554,0
1400.72222222222,-0.1,-0.0703510805602875,0.00520231121248283,0.036011209732077,0
1400.725,-0.135,-0.0711452147997207,0.00544143793550402,0.0360115021564412,0
1400.72777777778,-0.19,-0.0707019701761354,0.00581866805773062,0.0360117931535835,0
1400.73055555556,-0.23,-0.0695337077368239,0.00614909904270421,0.0360120998860986,0
1400.73333333333,-0.255,-0.0681163435345329,0.00641775844188702,0.0360124643096154,0
1400.73611111111,-0.24,-0.06682773325511,0.00661304223307337,0.0360129479863732,0
1400.73888888889,-0.21,-0.0658997821184114,0.00672690237530557,0.0360136246523745,0
1400.74166666667,-0.18,-0.065389485588841,0.00675489705986267,0.0360145730507545,0
1400.74444444444,-0.15,-0.0651720148183146,0.00669614008929784,0.0360158725294593,0
1400.74722222222,-0.14,-0.0649565588245557,0.0065531797666481,0.0360173384895804,0
1400.75,-0.135,-0.0643231711097955,0.00633182751704172,0.0360188639354199,0
1400.75277777778,-0.12,-0.0627765945248252,0.00604094430191503,0.0360203736190639,0
1400.75555555556,-0.115,-0.059811187123512,0.00575083401984486,0.0360218070307976,0
1400.75833333333,-0.09,-0.0549798325880941,0.00566555582517868,0.0360231214843045,0
1400.76111111111,-0.06,-0.047959218518524,0.00576773881143904,0.0360242922268892,0
1400.76388888889,-0.055,-0.0386041568778449,0.00602438785757775,0.0360253136962773,0
1400.76666666667,-0.025,-0.0269846758870569,0.00639053211483112,0.0360262023276875,0
1400.76944444444,-0.005,-0.0134013274459596,0.00678347838799954,0.0360269948880018,0
1400.77222222222,-0.005,0.00162364209962618,0.00713001845622959,0.0360277455385492,0
1400.775,0,0.0173791378351944,0.00741317097062058,0.0360283934275334,0
1400.77777777778,-0.015,0.0330194665576851,0.00761833673555858,0.0360289808862575,0
1400.78055555556,-0.01,0.0476351186414411,0.00773419148108114,0.0360296301190618,0
1400.78333333333,-0.01,0.0603334098050971,0.00775347929521343,0.0360304697157905,0
1400.78611111111,0.02,0.07032115945066,0.00781832620842253,0.0360315137877579,0
1400.78888888889,0.03,0.0769812002407548,0.00797993849158541,0.0360327409763156,0
1400.79166666667,0.015,0.0799349480923843,0.00820169002807513,0.0360341543463383,0
1400.79444444444,-0.015,0.0790844790725791,0.00843684982779921,0.0360357743893187,0
1400.79722222222,-0.04,0.0746294482750256,0.00863365118276389,0.0360376346439457,0
1400.8,-0.02,0.0670565667973576,0.00874096286739772,0.03603977541357,0
1400.80277777778,-0.01,0.0571019973541676,0.00871398978868907,0.036042237652895,0
1400.80555555556,0.005,0.0456896796543868,0.00851942250838759,0.0360450062835872,0
1400.80833333333,-0.01,0.0338509931089175,0.00813950468895726,0.0360479394297988,0
1400.81111111111,-0.02,0.0226330686909343,0.0077676365236322,0.0360508981084754,0
1400.81388888889,-0.05,0.0130042815713047,0.0074621143098551,0.0360537564267904,0
1400.81666666667,-0.07,0.00576586410867975,0.00723501103667098,0.0360564130802392,0
1400.81944444444,-0.06,0.00147812535182695,0.00709289747765298,0.0360589721709286,0
1400.82222222222,-0.06,0.000408482212420106,0.00703647301666917,0.0360615906024776,0
1400.825,-0.06,0.0025065134660103,0.00706065509343502,0.0360644683017555,0
1400.82777777778,-0.05,0.00740872567149267,0.00715512977168158,0.0360677062391764,0
1400.83055555556,-0.045,0.014472907944455,0.00730532572608056,0.036071276745102,0
1400.83333333333,-0.045,0.0228391187214233,0.00749373575466169,0.0360751274489398,0
1400.83611111111,-0.04,0.0315117654167125,0.00764282436872656,0.036079183418963,0
1400.83888888889,-0.035,0.0394551588065113,0.00754406414062259,0.0360833508033569,0
1400.84166666667,-0.03,0.0456935535935305,0.00735150626380963,0.0360875223544932,0
1400.84444444444,-0.025,0.0494061641054669,0.00718816818889673,0.0360915829531223,0
1400.84722222222,-0.02,0.0500080283327751,0.00706283287705852,0.0360954159137487,0
1400.85,-0.03,0.0472088566861044,0.00697904792770101,0.0360989124626639,0
1400.85277777778,-0.04,0.0410440313400545,0.00693488473584299,0.0361019794247038,0
1400.85555555556,-0.06,0.0318745305268257,0.00692320610930745,0.0361046749326395,0
1400.85833333333,-0.065,0.0203554950158571,0.00693242190633189,0.0361070984709085,0
1400.86111111111,-0.055,0.00737615230063168,0.00694766762007793,0.036109491451027,0
1400.86388888889,-0.07,-0.00602341908923404,0.00695230157682158,0.0361122514870084,0
1400.86666666667,-0.08,-0.0187509344039473,0.00697501687385072,0.0361154793736103,0
1400.86944444444,-0.095,-0.0297666578716124,0.00704020178540416,0.0361190866110439,0
1400.87222222222,-0.1,-0.0381842965520948,0.00715977163377287,0.0361229494894107,0
1400.875,-0.08,-0.0433583353797811,0.00734112019460063,0.0361269176356897,0
1400.87777777778,-0.045,-0.0449493195623196,0.00758619692290369,0.0361308253034021,0
1400.88055555556,-0.04,-0.0429606165122274,0.00789106471319062,0.0361345044235111,0
1400.88333333333,-0.025,-0.0377428512415115,0.00824598115573948,0.0361377968172595,0
1400.88611111111,-0.025,-0.0299652575850391,0.00863599818675939,0.0361406158214519,0
1400.88888888889,-0.035,-0.0205563345709373,0.00904202725620247,0.0361430257627961,0
1400.89166666667,-0.035,-0.0106191427168368,0.0092492278657309,0.0361451155802242,0
1400.89444444444,-0.05,-0.00132903576673787,0.00919570718781575,0.0361471770310017,0
1400.89722222222,-0.05,0.00617663980959601,0.00888426716859182,0.0361495112428965,0
1400.9,-0.03,0.0109065042650839,0.0086336972145039,0.0361521876605362,0
1400.90277777778,-0.03,0.0121105321500567,0.00846927182244642,0.0361551770113397,0
1400.90555555556,-0.03,0.00935375728262165,0.00840175393855479,0.0361583412088664,0
1400.90833333333,-0.03,0.00256118264208936,0.00843622222235861,0.0361615658976541,0
1400.91111111111,-0.02,-0.00797052523356534,0.00857189659157201,0.0361647878651125,0
1400.91388888889,-0.005,-0.0215958442745388,0.00880246445969809,0.0361678961328697,0
1400.91666666667,-0.015,-0.0373757160906168,0.00911686245128651,0.0361707420214902,0
1400.91944444444,-0.03,-0.0541602753987363,0.00950042479715841,0.0361731541720644,0
1400.92222222222,-0.065,-0.0706912470196726,0.00979912315298644,0.036175177514639,0
1400.925,-0.085,-0.0857143514311863,0.00990981825642136,0.0361768760886177,0
1400.92777777778,-0.11,-0.098091058672344,0.00986178141358637,0.0361783214310766,0
1400.93055555556,-0.13,-0.106899047995339,0.00970411555440873,0.0361795987796274,0
1400.93333333333,-0.13,-0.11151177368185,0.00950083089558171,0.036181028789478,0
1400.93611111111,-0.11,-0.111649513937585,0.00932430465934382,0.0361850893490358,0
1400.93888888889,-0.08,-0.107397007095166,0.00924774186547912,0.0361916832430433,0
1400.94166666667,-0.035,-0.0991860007496071,0.00933736138282139,0.0362002008522671,0
1400.94444444444,-0.03,-0.0877444479925986,0.00964507013007169,0.0362094594572158,0
1400.94722222222,-0.04,-0.0740173524475745,0.0100122314548751,0.0362187425906104,0
1400.95,-0.06,-0.0590670722727208,0.0103574317678547,0.0362295789842959,0
1400.95277777778,-0.085,-0.0439629654165821,0.0106812611070753,0.0362439785538125,0
1400.95555555556,-0.07,-0.0296713848328318,0.0109822672868821,0.0362642351324789,0
1400.95833333333,-0.06,-0.0169570926200081,0.011256243083936,0.036292700252566,0
1400.96111111111,-0.055,-0.00630613725090303,0.0114959181247396,0.0363316162179584,0
1400.96388888889,-0.05,0.00212178601942569,0.0116911199963078,0.0363829390966516,0
1400.96666666667,-0.055,0.00850631123368329,0.0118294167066938,0.0364481649883321,0
1400.96944444444,-0.06,0.0133429243316335,0.0118971966487602,0.0365281782108946,0
1400.97222222222,-0.05,0.0173848610797505,0.0118810884992312,0.0366231229749934,0
1400.975,-0.04,0.0215557071789507,0.0117695778362792,0.0367321212737892,0
1400.97777777778,0,0.0268410617332081,0.0119750114411674,0.0368534067638219,0
1400.98055555556,0.04,0.034169892191622,0.0122964233892786,0.0369845245318657,0
1400.98333333333,0.075,0.0442974737468533,0.0127212948886785,0.0371224464565679,0
1400.98611111111,0.095,0.057701927033587,0.013239932741009,0.0372635237594953,0
1400.98888888889,0.09,0.0745053107505285,0.0138360046252959,0.0374036453461671,0
1400.99166666667,0.07,0.0944280694635793,0.0144872628996217,0.037545994493824,0
1400.99444444444,0.05,0.11678256771895,0.0151669451262181,0.0376939415745477,0
1400.99722222222,0.06,0.140507737649591,0.0158457657603112,0.0378502230230106,0
1401,0.08,0.164242873141017,0.0164943440191092,0.03801683819874,0
1401.00277777778,0.115,0.18643469903743,0.0170858544652965,0.0381947865018505,0
1401.00555555556,0.14,0.205468408050137,0.0175986458909005,0.0383843043904657,0
1401.00833333333,0.16,0.219810733611222,0.0180185559069739,0.0385849722111023,0
1401.01111111111,0.14,0.228151586597875,0.0183406565342725,0.0387958599611676,0
1401.01388888889,0.115,0.229530503058777,0.0185702010032583,0.0390157025830342,0
1401.01666666667,0.095,0.223435188261285,0.0187226023012964,0.0392432791520246,0
1401.01944444444,0.08,0.20986173492364,0.0188223556049379,0.0394775108628231,0
1401.02222222222,0.065,0.189329455095485,0.0189009131826709,0.0397174973518261,0
1401.025,0.075,0.162847404620893,0.0189936234356131,0.0399626458714911,0
1401.02777777778,0.065,0.131834224431549,0.019135946134196,0.040210326164457,0
1401.03055555556,0.085,0.0979974543012455,0.0193592439795223,0.0404549839222076,0
1401.03333333333,0.065,0.0631825628738125,0.0196865173139403,0.0406947638006102,0
1401.03611111111,0.055,0.0292051839013622,0.0201284865083823,0.040928547105919,0
1401.03888888889,0.045,-0.00231787781660342,0.0206804298537855,0.0411549051317441,0
1401.04166666667,0.025,-0.0301226361251424,0.0213201510828363,0.0413722573978877,0
1401.04444444444,0.005,-0.0534215107379858,0.022007380539226,0.0415790555308606,0
1401.04722222222,-0.01,-0.0719834264183711,0.0226848113854506,0.0417739754189947,0
1401.05,-0.04,-0.086160957707981,0.023280844102909,0.0419561009098299,0
1401.05277777778,-0.045,-0.0968596840566858,0.023713968542645,0.0421250846316363,0
1401.05555555556,-0.04,-0.105450167798992,0.0238985645090437,0.0422812702210426,0
1401.05833333333,-0.05,-0.113628368158853,0.0240453671364025,0.0424257652069267,0
1401.06111111111,-0.055,-0.123235368371524,0.0245962468827049,0.0425603204375926,0
1401.06388888889,-0.095,-0.136051547262079,0.0256062328135847,0.04268724803554,0
1401.06666666667,-0.1,-0.153583358807718,0.0271058408299443,0.0428098055193888,0
1401.06944444444,-0.115,-0.176862380039121,0.029095412429119,0.042932707557729,0
1401.07222222222,-0.115,-0.206276065450293,0.0315412119258877,0.0430528301268212,0
1401.075,-0.125,-0.241447670344481,0.0343737372986578,0.0431663224168202,0
1401.07777777778,-0.15,-0.281179197291816,0.0374885561932603,0.0432694881566683,0
1401.08055555556,-0.15,-0.323466248425715,0.0407498016812451,0.0433590001209982,0
1401.08333333333,-0.14,-0.36558772855743,0.0439962647810548,0.043432529358441,0
1401.08611111111,-0.14,-0.404266932110649,0.0470498173761779,0.0434895271012896,0
1401.08888888889,-0.165,-0.435894206478029,0.0497257059440746,0.0435303109976207,0
1401.09166666667,-0.165,-0.456795668217024,0.0518440891859293,0.0435559719068885,0
1401.09444444444,-0.17,-0.46352786770349,0.0532420654746064,0.0435682423859535,0
1401.09722222222,-0.175,-0.453175276712594,0.053785360577784,0.0435693771310672,0
1401.1,-0.165,-0.423626310732177,0.0536278771214217,0.0435714033736219,0
1401.10277777778,-0.155,-0.37380443890851,0.0543691765139966,0.0435740830368348,0
1401.10555555556,-0.135,-0.30383375595949,0.0558804746397308,0.0435770279891263,0
1401.10833333333,-0.11,-0.215122999394079,0.0579957376720982,0.0435798702936877,0
1401.11111111111,-0.065,-0.110358043857484,0.0605264114459629,0.0435822788710278,0
1401.11388888889,-0.005,0.00660008338028373,0.0632775606962564,0.043584593579095,0
1401.11666666667,0.09,0.130907210296205,0.066064042367166,0.043587273289589,0
1401.11944444444,0.21,0.257006391165731,0.0687253407623532,0.0435906561955598,0
1401.12222222222,0.38,0.378958579368752,0.0711378140596532,0.0435947519579015,0
1401.125,0.58,0.490810479240165,0.0732233312204837,0.0435994799433109,0
1401.12777777778,0.79,0.586973163389555,0.0749535957343418,0.0436046859602113,0
1401.13055555556,1.02,0.662583808692949,0.0763498304076184,0.043610163546968,0
1401.13333333333,1.23,0.713823847413291,0.0774779026992694,0.043615677899531,0
1401.13611111111,1.37,0.738169889147747,0.078439367673434,0.0436209901568996,0
1401.13888888889,1.405,0.734558709022394,0.0786452891109409,0.043625880130749,0
1401.14166666667,1.315,0.70345402642505,0.0776327942658608,0.0436301663529341,0
1401.14444444444,1.135,0.646810201888204,0.0763995661456442,0.043633727550953,0
1401.14722222222,0.885,0.567935762403911,0.0748381612900146,0.043636560575683,0
1401.15,0.605,0.471267201730429,0.0728746168740645,0.0436387969159067,0
1401.15277777778,0.315,0.362070188060747,0.0704782317566868,0.0436405690053059,0
1401.15555555556,0.065,0.246090614710182,0.067667443179444,0.043642007865659,0
1401.15833333333,-0.07,0.129181434302418,0.0645112478839766,0.0436432387499019,0
1401.16111111111,-0.16,0.0169326575468184,0.061126005600977,0.0436443741580588,0
1401.16388888889,-0.185,-0.085668820248981,0.0576678655407633,0.0436455693631768,0
1401.16666666667,-0.175,-0.174525694704086,0.054321437662094,0.0436469944042301,0
1401.16944444444,-0.145,-0.246643774596487,0.051285657097738,0.0436487678898225,0
1401.17222222222,-0.11,-0.300259332793362,0.0487580340458025,0.0436509371449836,0
1401.175,-0.085,-0.334874016530601,0.0470636504246742,0.0436534635005628,0
1401.17777777778,-0.065,-0.351198329209197,0.0463881733309763,0.0436559875802862,0
1401.18055555556,-0.075,-0.351011713736103,0.0464532658704668,0.0436581329570781,0
1401.18333333333,-0.095,-0.336953457398717,0.0455315030584008,0.0436601822210167,0
1401.18611111111,-0.12,-0.312263515262955,0.0436337421622251,0.0436624501690594,0
1401.18888888889,-0.16,-0.280495546760099,0.0409973741060893,0.0436597418506144,0
1401.19166666667,-0.21,-0.245225759627454,0.0379133823992635,0.0436496247093669,0
1401.19444444444,-0.24,-0.209780501129728,0.0345720860882481,0.0436298206190697,0
1401.19722222222,-0.25,-0.177003037782361,0.0311621193400534,0.0435983380973617,0
1401.2,-0.25,-0.149075883119825,0.0278593666294288,0.043553648570829,0
1401.20277777778,-0.24,-0.127409756663001,0.0248174855177369,0.0434950181072147,0
1401.20555555556,-0.245,-0.112604265272998,0.0221605516138998,0.0434222708949858,0
1401.20833333333,-0.25,-0.104479217489932,0.0199781803852851,0.0433360269283447,0
1401.21111111111,-0.255,-0.102169640692667,0.0183232840734384,0.0432377404291259,0
1401.21388888889,-0.245,-0.104272554400289,0.0172124246310207,0.0431296856105858,0
1401.21666666667,-0.225,-0.109029760417507,0.0166285403103599,0.0430148871863309,0
1401.21944444444,-0.195,-0.114528624188083,0.016525667529564,0.0428969965773454,0
1401.22222222222,-0.185,-0.118902185235512,0.0168222913843434,0.042778607345915,0
1401.225,-0.19,-0.120510943783264,0.0164904400770491,0.042656124943691,0
1401.22777777778,-0.185,-0.118091177926909,0.0156613322375754,0.0425265212854639,0
1401.23055555556,-0.195,-0.110858376751376,0.0146447563616213,0.0423875092784009,0
1401.23333333333,-0.225,-0.0985589561011402,0.0135726006133029,0.0422376044985214,0
1401.23611111111,-0.245,-0.0814684184482236,0.0125211963599834,0.0420761465542586,0
1401.23888888889,-0.25,-0.0603390666485711,0.0115519691909602,0.0419032538460978,0
1401.24166666667,-0.24,-0.0363048421320359,0.0107091440561653,0.0417197173625763,0
1401.24444444444,-0.21,-0.0107544475475126,0.010019052693874,0.0415268526244289,0
1401.24722222222,-0.2,0.014813661277767,0.00952611313827809,0.041326429091837,0
1401.25,-0.185,0.0389397481266139,0.00933776053165735,0.0411202459397018,0
1401.25277777778,-0.19,0.0603403824933744,0.00941223831649193,0.0409099457946327,0
1401.25555555556,-0.195,0.0780224209314489,0.00953414632968149,0.0406968638971277,0
1401.25833333333,-0.21,0.0913634229669656,0.0095752831309823,0.0404818718770068,0
1401.26111111111,-0.21,0.100152130228662,0.0095677642959132,0.0402665724980242,0
1401.26388888889,-0.21,0.104586698654512,0.00954152473755671,0.0400531422262483,0
1401.26666666667,-0.205,0.105232513445536,0.0095217784712693,0.0398424468926424,0
1401.26944444444,-0.195,0.102945245345349,0.00951625293400734,0.0396358683664441,0
1401.27222222222,-0.185,0.0987679749139365,0.00947394349635814,0.0394351709145293,0
1401.275,-0.185,0.0938134397624774,0.00939058223710466,0.0392423228611106,0
1401.27777777778,-0.185,0.0891435643167831,0.00926837860287542,0.0390592863515271,0
1401.28055555556,-0.185,0.0856583385632977,0.00911467762697342,0.0388877981333771,0
1401.28333333333,-0.175,0.0840048616129217,0.00894025229120217,0.0387290671041415,0
1401.28611111111,-0.155,0.0845151058906431,0.00875745497936322,0.0385837328653863,0
1401.28888888889,-0.135,0.0871779280817078,0.00857844527755197,0.0384516720709662,0
1401.29166666667,-0.13,0.0916473606391752,0.00841368253917231,0.038331921937518,0
1401.29444444444,-0.15,0.0972856067292949,0.00827082591486009,0.0382225403617973,0
1401.29722222222,-0.175,0.103235779984236,0.00815412759507425,0.038119062038332,0
1401.3,-0.165,0.108516597537808,0.00806434324866923,0.0380169726062828,0
1401.30277777778,-0.145,0.112129211392899,0.00799912361099865,0.0379134744576628,0
1401.30555555556,-0.1,0.113165328218316,0.00795379891364937,0.0378126340226075,0
1401.30833333333,-0.08,0.110905802942559,0.00794063056295295,0.0377185857031525,0
1401.31111111111,-0.115,0.104899975458851,0.00796409576087391,0.0376351367811447,0
1401.31388888889,-0.175,0.0950180313269671,0.00798469181517055,0.0375654546902527,0
1401.31666666667,-0.23,0.0814713990666984,0.00800550984627777,0.0375102881943985,0
1401.31944444444,-0.26,0.0647993755682039,0.00802706766826816,0.0374695317405013,0
1401.32222222222,-0.26,0.045823485789035,0.00804706332763375,0.0374423033004197,0
1401.325,-0.25,0.0255742132478413,0.00806054030163937,0.0374270667505044,0
1401.32777777778,-0.22,0.0051973857750878,0.00806063569098343,0.0374217863863362,0
1401.33055555556,-0.19,-0.014150581660749,0.00808257033245991,0.0374207764273822,0
1401.33333333333,-0.17,-0.031408373922455,0.00813471775398987,0.0374188748282858,0
1401.33611111111,-0.18,-0.0457061610867401,0.00822435909849874,0.0374166944452134,0
1401.33888888889,-0.195,-0.0564434170765113,0.0083565335391322,0.0374148256622101,0
1401.34166666667,-0.2,-0.0633407548457613,0.00853307613088763,0.0374136475214212,0
1401.34444444444,-0.165,-0.0664609070484818,0.00875196215700428,0.0374128299086105,0
1401.34722222222,-0.15,-0.0661969744276535,0.00900704515246287,0.0374117807065782,0
1401.35,-0.125,-0.063229215587758,0.00913240505260059,0.0374101891600538,0
1401.35277777778,-0.105,-0.0584546595817434,0.00901208663579834,0.0374079197983163,0
1401.35555555556,-0.085,-0.0528964015281749,0.00872126269357686,0.0374049158627744,0
1401.35833333333,-0.09,-0.0476013492447593,0.00845024470996202,0.0374011906371789,0
1401.36111111111,-0.135,-0.0435362493696717,0.0082153145252672,0.0373968206650058,0
1401.36388888889,-0.205,-0.0414919401731329,0.00803076566706921,0.037392035232266,0
1401.36666666667,-0.275,-0.042004950741832,0.00790750623128765,0.0373871750991239,0
1401.36944444444,-0.285,-0.0453038775357146,0.00785192472527217,0.0373825648147398,0
1401.37222222222,-0.25,-0.051285585317551,0.00786513914234002,0.0373784817597153,0
1401.375,-0.195,-0.059523430398428,0.00794271428867939,0.0373749516875544,0
1401.37777777778,-0.12,-0.0693066624317392,0.00807488828075843,0.0373716743987605,0
1401.38055555556,-0.085,-0.0797072151462194,0.00824730046058441,0.0373685458653053,0
1401.38333333333,-0.075,-0.0896675237586928,0.00844216447057059,0.0373655009902555,0
1401.38611111111,-0.08,-0.0981010474524092,0.00863978660728992,0.0373625154224478,0
1401.38888888889,-0.105,-0.103996009832161,0.0088020928293834,0.0373596038712827,0
1401.39166666667,-0.135,-0.106512603228603,0.00874254851689378,0.0373570102475064,0
1401.39444444444,-0.14,-0.105064553421141,0.00864778538399141,0.037354862571964,0
1401.39722222222,-0.13,-0.0993774426857033,0.00861368365374826,0.0373529370226674,0
1401.4,-0.09,-0.0895183945433585,0.00864483723135291,0.0373510131827595,0
1401.40277777778,-0.055,-0.0758944216519312,0.00873962155306408,0.0373489977691227,0
1401.40555555556,-0.05,-0.0592196727484027,0.00889022540463648,0.0373468105842343,0
1401.40833333333,-0.05,-0.0404547089500982,0.00904785436183449,0.0373443925397723,0
1401.41111111111,-0.03,-0.0207235234192938,0.00903782703839134,0.0373417114942654,0
1401.41388888889,-0.05,-0.00121605191374589,0.00884631234759809,0.0373387658284734,0
1401.41666666667,-0.06,0.0169147810208312,0.008643939846569,0.0373355863893513,0
1401.41944444444,-0.065,0.0326519902255558,0.00848171261372641,0.0373322357847521,0
1401.42222222222,-0.05,0.0452003842844051,0.00837858914920424,0.0373289513227132,0
1401.425,-0.05,0.0540515784519863,0.00834932305883801,0.037326018557703,0
1401.42777777778,-0.05,0.0590223915135254,0.00840314955336688,0.0373235027850062,0
1401.43055555556,-0.06,0.0602633652912218,0.00854293403977138,0.0373212567155623,0
1401.43333333333,-0.06,0.0582369401393758,0.00876485443698629,0.0373190538503175,0
1401.43611111111,-0.04,0.0536676322628587,0.00895877586075905,0.0373167029745575,0
1401.43888888889,0.015,0.0474691262289082,0.00891627121009556,0.0373140626528814,0
1401.44166666667,0.065,0.0406552810241966,0.00862158675549546,0.0373110692547584,0
1401.44444444444,0.115,0.0342434601320585,0.00822403294101524,0.037307733404645,0
1401.44722222222,0.095,0.0291592098046171,0.00783846594857669,0.0373040987303968,0
1401.45,0.05,0.0261510753905858,0.00748837504079229,0.0373002369342399,0
1401.45277777778,-0.015,0.0257232936417537,0.00719469067818178,0.0372962408003648,0
1401.45555555556,-0.055,0.0280923361927872,0.006974269941671,0.0372923184538273,0
1401.45833333333,-0.055,0.0331709784736634,0.00683874375531601,0.0372885046050755,0
1401.46111111111,-0.06,0.0405809507170006,0.00679381008341833,0.037284691884297,0
1401.46388888889,-0.065,0.0496925427088534,0.0068390159062754,0.0372808098558886,0
1401.46666666667,-0.065,0.059687034743907,0.00696802690310332,0.0372768374547322,0
1401.46944444444,-0.035,0.0696357472293892,0.00716934151796861,0.0372728102286795,0
1401.47222222222,-0.02,0.0785880321450635,0.00742736932647768,0.0372688216020947,0
1401.475,0,0.0856598032419348,0.00758401214724035,0.0372649241160023,0
1401.47777777778,0.01,0.0901142791081319,0.0075840189260964,0.0372611774497406,0
1401.48055555556,0.03,0.0914274780670737,0.00747094770129016,0.0372576032337265,0
1401.48333333333,0.045,0.089332565795573,0.00729679014030175,0.0372540778311731,0
1401.48611111111,0.035,0.0838392596727624,0.00711642682047993,0.0372504655787473,0
1401.48888888889,0.035,0.0752269322002056,0.00698187503062378,0.0372466296982055,0
1401.49166666667,0.04,0.0640125931851059,0.00693689220844397,0.0372424436825105,0
1401.49444444444,0.045,0.0508973230383705,0.00701246087304178,0.0372378022565049,0
1401.49722222222,0.035,0.0366967495080881,0.00706021094262629,0.0372326310258008,0
1401.5,0.015,0.0222626167883962,0.00705413017912507,0.0372268923266575,0
1401.50277777778,0,0.00840325386669182,0.00700045301148435,0.037220591336959,0
1401.50555555556,-0.025,-0.0041892592088988,0.00690739056890993,0.0372138335304805,0
1401.50833333333,-0.04,-0.0149981961015314,0.00678434738263178,0.0372070079405878,0
1401.51111111111,-0.035,-0.023721976325991,0.00664120385301566,0.0372002977096588,0
1401.51388888889,-0.025,-0.0302910432799543,0.00648772845487931,0.0371936573683571,0
1401.51666666667,0.005,-0.0348605477432969,0.00633315989497316,0.0371870116419522,0
1401.51944444444,-0.01,-0.0377799882578664,0.00618597219300935,0.0371802598834597,0
1401.52222222222,-0.02,-0.0395432641939139,0.00622757069653936,0.037173261544953,0
1401.525,-0.055,-0.0407245488112194,0.00633783580173988,0.0371658555869561,0
1401.52777777778,-0.075,-0.0419067972328325,0.0064199586362351,0.0371598714440545,0
1401.53055555556,-0.065,-0.0436104298036494,0.0064681853218465,0.0371593542151155,0
1401.53333333333,-0.065,-0.0462297028258177,0.0064771705891537,0.0371641743989869,0
1401.53611111111,-0.07,-0.049983497394802,0.00644201566921927,0.0371735524944491,0
1401.53888888889,-0.05,-0.0548857975341428,0.00635846432863102,0.0371857804677712,0
1401.54166666667,-0.04,-0.0607391319158992,0.00622327116832523,0.0371992874975217,0
1401.54444444444,-0.025,-0.0671519130730939,0.00603472713975679,0.0372127582331324,0
1401.54722222222,-0.04,-0.0735781527060811,0.00579329753253016,0.0372252836809694,0
1401.55,-0.04,-0.0793757028326958,0.00550230111145809,0.0372375017057743,0
1401.55277777778,-0.03,-0.0838772012024158,0.00523442310380524,0.0372503256970846,0
1401.55555555556,-0.015,-0.0864664840620091,0.00514715084093061,0.037263033260594,0
1401.55833333333,-0.005,-0.0866525165712554,0.00521483956235035,0.0372740457921758,0
1401.56111111111,0.01,-0.0841329610099431,0.00539437283296312,0.0372823150295312,0
1401.56388888889,0.01,-0.0788403606876274,0.00562912478715364,0.0372879611643597,0
1401.56666666667,0.005,-0.0709654923644552,0.00585432907953078,0.0372914568654228,0
1401.56944444444,-0.005,-0.0609545910091678,0.0060033688210214,0.037293546428871,0
1401.57222222222,0.005,-0.0494796792421593,0.00601440616274986,0.0372951673303528,0
1401.575,0,-0.0373839017735225,0.00601144481395409,0.0372973469439968,0
1401.57777777778,0.005,-0.0256063171202992,0.00615309035955292,0.0373010834340297,0
1401.58055555556,0.015,-0.0150927860494753,0.00645190571935509,0.0373072206701251,0
1401.58333333333,0.035,-0.00670119995625567,0.00691223813937047,0.037316328079203,0
1401.58611111111,0.045,-0.00111014549023738,0.0075289129586326,0.0373285965311597,0
1401.58888888889,0.05,0.00125989519130529,0.00828652060552938,0.0373437171645821,0
1401.59166666667,0.025,0.000304577188778452,0.00915941868765157,0.0373585995782434,0
1401.59444444444,-0.005,-0.00373359414182052,0.0101125184230572,0.0373719394627989,0
1401.59722222222,-0.04,-0.0102660715263358,0.0111028613583787,0.0373854641098936,0
1401.6,-0.07,-0.0183919768886755,0.0120819235218712,0.037401269809546,0
1401.60277777778,-0.075,-0.0269630594962479,0.012824753447936,0.0374216940736428,0
1401.60555555556,-0.065,-0.0346752685924907,0.0132633193870693,0.0374491552336696,0
1401.60833333333,-0.04,-0.0401796695173317,0.0133643351791692,0.0374859699545217,0
1401.61111111111,-0.005,-0.0422033849982739,0.0131195982065918,0.037534161548939,0
1401.61388888889,0.025,-0.0396699910911828,0.01290090813829,0.0375952741760136,0
1401.61666666667,0.05,-0.0318084756998326,0.0129249787153978,0.0376702069916106,0
1401.61944444444,0.055,-0.0182405301262286,0.0131933834914215,0.0377591144931914,0
1401.62222222222,0.05,0.000962444435973766,0.013693075286804,0.0378613144832509,0
1401.625,0.08,0.0252587953517701,0.0143970884361034,0.0379752436717001,0
1401.62777777778,0.105,0.0536556567447639,0.0152663472020398,0.0380984786045124,0
1401.63055555556,0.095,0.0847672512529222,0.0162524756107844,0.0382267892127523,0
1401.63333333333,0.055,0.116908641949406,0.0172355290717198,0.0383556141933111,0
1401.63611111111,0.035,0.148217869933323,0.0180131830940096,0.0384866267471277,0
1401.63888888889,0.065,0.176796705183852,0.0185732382191573,0.0386243882978524,0
1401.64166666667,0.09,0.200858328601043,0.0189320242931959,0.0387724010798331,0
1401.64444444444,0.125,0.218869341158225,0.0191335674908336,0.0389323843614887,0
1401.64722222222,0.155,0.229673667452293,0.0192460508812946,0.0391050547445636,0
1401.65,0.185,0.232587196602837,0.0193557929320733,0.0392902163138517,0
1401.65277777778,0.2,0.227454296816582,0.0195591972032899,0.0394871102775527,0
1401.65555555556,0.22,0.214660472611821,0.0197786044783094,0.0396943750092733,0
1401.65833333333,0.24,0.195099149453908,0.0199089658736865,0.0399102566123518,0
1401.66111111111,0.22,0.170094556316991,0.0199927738645987,0.0401328493648938,0
1401.66388888889,0.2,0.141286588894089,0.0200758378081371,0.0403603371916347,0
1401.66666666667,0.17,0.110487030215916,0.020202065430122,0.040591214578721,0
1401.66944444444,0.17,0.0795192656807812,0.0204081291119508,0.0408244674178331,0
1401.67222222222,0.17,0.0500553973111272,0.0207184972338235,0.0410596979839205,0
1401.675,0.135,0.0234652593341228,0.0211413062531719,0.0412938016291909,0
1401.67777777778,0.105,0.000691183320325902,0.021665503700456,0.0415250273539462,0
1401.68055555556,0.075,-0.0178395181891328,0.0222596077370872,0.041751745447179,0
1401.68333333333,0.065,-0.0322553535282013,0.0228723105813286,0.0419719207241649,0
1401.68611111111,0.065,-0.0432295809478125,0.0234350092600095,0.0421833200966021,0
1401.68888888889,0.04,-0.0519165013452358,0.0238661885579181,0.0423837486873394,0
1401.69166666667,0,-0.0598389406914596,0.024077420161564,0.0425712923898662,0
1401.69444444444,-0.02,-0.0687351455741152,0.0241742483350273,0.0427445444248725,0
1401.69722222222,-0.04,-0.0803771414314026,0.0246589849603753,0.0429027961848073,0
1401.7,-0.035,-0.0963755187414604,0.0255951538689317,0.0430460356322029,0
1401.70277777778,-0.035,-0.117987347666275,0.0270224291278088,0.0431750966507999,0
1401.70555555556,-0.025,-0.145944299619635,0.028950294732026,0.0432917420130878,0
1401.70833333333,-0.03,-0.180317007785663,0.0313534824862538,0.0433994092526271,0
1401.71111111111,-0.02,-0.22042927782813,0.0341696773754736,0.0435026410302388,0
1401.71388888889,-0.04,-0.264832130085716,0.0372998318297451,0.0436059405812037,0
1401.71666666667,-0.06,-0.311343084040871,0.0406112486028512,0.043707660604438,0
1401.71944444444,-0.08,-0.357150936353706,0.0439433893503749,0.0438033798089372,0
1401.72222222222,-0.105,-0.398980942253898,0.0471161573405961,0.0438888663885306,0
1401.725,-0.115,-0.433310216492827,0.0499402039606028,0.0439610789038876,0
1401.72777777778,-0.11,-0.456618742426243,0.0522286354321152,0.0440185370267663,0
1401.73055555556,-0.12,-0.465657988082518,0.0538093625765745,0.0440609429967427,0
1401.73333333333,-0.095,-0.457717071265826,0.0545372540791101,0.0440886835957091,0
1401.73611111111,-0.06,-0.430865884925972,0.0543052304068779,0.0441028796589168,0
1401.73888888889,-0.03,-0.384155663419924,0.0547540896002323,0.0441052583541574,0
1401.74166666667,-0.03,-0.31776008777557,0.0559281882054685,0.0441065420302794,0
1401.74444444444,-0.01,-0.233044017830369,0.0576894752593151,0.0441091692991401,0
1401.74722222222,0.005,-0.132552014279592,0.0598789282061043,0.0441127342409253,0
1401.75,0.04,-0.0199145979570827,0.0623296673350544,0.0441168141017314,0
1401.75277777778,0.1,0.100323749586445,0.0648801722774158,0.0441209946969977,0
1401.75555555556,0.215,0.222944973983528,0.0673865428309811,0.0441248915888735,0
1401.75833333333,0.375,0.342351131675512,0.0697328345412729,0.0441288100158518,0
1401.76111111111,0.56,0.452892104901383,0.0718386656338425,0.0441330720730978,0
1401.76388888889,0.765,0.549205292220646,0.0736635223164234,0.0441378066772875,0
1401.76666666667,0.995,0.626544032314118,0.0752074652019929,0.0441429565249365,0
1401.76944444444,1.24,0.68107203990086,0.0765082380436016,0.0441484161606152,0
1401.77222222222,1.45,0.710103332820616,0.0776350767230783,0.0441540524714124,0
1401.775,1.565,0.712270851208538,0.0781321378681359,0.0441597244676934,0
1401.77777777778,1.545,0.687611938743973,0.0773464295349626,0.0441653012691978,0
1401.78055555556,1.365,0.637564701882066,0.0761555721234124,0.0441706817544184,0
1401.78333333333,1.105,0.5648755483957,0.0747485391305526,0.0441758112214931,0
1401.78611111111,0.795,0.473424460985452,0.0730566284045594,0.0441806030574161,0
1401.78888888889,0.445,0.367980318079873,0.0710426194572495,0.0441850871571549,0
1401.79166666667,0.145,0.253903404708925,0.0687067886267926,0.044189405595209,0
1401.79444444444,-0.07,0.136815806397944,0.0660896362519658,0.0441936534046767,0
1401.79722222222,-0.195,0.0222623928443277,0.0632710634453413,0.0441978683826764,0
1401.8,-0.225,-0.0846145611530264,0.0603660300224594,0.0441990837745505,0
1401.80277777778,-0.195,-0.179365410848066,0.0575170163280121,0.044197527142738,0
1401.80555555556,-0.125,-0.258469028768508,0.0548838763628935,0.0441939812678828,0
1401.80833333333,-0.04,-0.319499967108578,0.0526318862623239,0.0441897580338792,0
1401.81111111111,0.015,-0.361217534469676,0.0509189432936286,0.0441851377689962,0
1401.81388888889,0.04,-0.383573224493038,0.0499527844387069,0.0441783616497905,0
1401.81666666667,0.01,-0.387638869170866,0.0500558841096959,0.0441674048184975,0
1401.81944444444,0.01,-0.37546351259977,0.0494593046652053,0.0441500825396881,0
1401.82222222222,-0.035,-0.349871893748352,0.0479949546720289,0.044124183970249,0
1401.825,-0.065,-0.314221234856956,0.0456943671557551,0.0440876256428207,0
1401.82777777778,-0.075,-0.272135490778164,0.0426385386042233,0.0440386145340645,0
1401.83055555556,-0.085,-0.227237168538904,0.0390514639668075,0.0439758090360429,0
1401.83333333333,-0.105,-0.182896239865354,0.0353345186978565,0.0438984654318247,0
1401.83611111111,-0.14,-0.142013626860382,0.0316847542532802,0.0438065576942404,0
1401.83888888889,-0.145,-0.106853438431972,0.0282792127276078,0.0437008596073022,0
1401.84166666667,-0.14,-0.0789338623450743,0.0252658934601782,0.043582980304946,0
1401.84444444444,-0.115,-0.0589817340142519,0.0227571688808784,0.0434554295387173,0
1401.84722222222,-0.095,-0.0469507068372952,0.020825939035996,0.043321536630482,0
1401.85,-0.075,-0.0420980453427196,0.0195046092288106,0.0431851960160614,0
1401.85277777778,-0.06,-0.043110731469746,0.0187867740579069,0.0430495815294149,0
1401.85555555556,-0.075,-0.0482681403163503,0.0186313084473638,0.0429107205800215,0
1401.85833333333,-0.08,-0.0556262488906879,0.0189684146940033,0.0427651788473869,0
1401.86111111111,-0.095,-0.0632073359504798,0.0188673841468175,0.0426102323109125,0
1401.86388888889,-0.115,-0.0691794514649064,0.0181385878186841,0.0424439763263227,0
1401.86666666667,-0.125,-0.072011510880731,0.016913679602413,0.042265437790644,0
1401.86944444444,-0.11,-0.0705925324602093,0.0156055461503892,0.0420745234000213,0
1401.87222222222,-0.09,-0.0643070318888392,0.0143096727608612,0.0418718428533339,0
1401.875,-0.08,-0.0530626024705713,0.0131060390569426,0.0416585408315859,0
1401.87777777778,-0.07,-0.0372698931614544,0.0120553617490541,0.0414360941194676,0
1401.88055555556,-0.065,-0.0177791979195593,0.0111971601238066,0.0412060895733641,0
1401.88333333333,-0.065,0.00421863897578478,0.0105496242493887,0.0409699971215084,0
1401.88611111111,-0.06,0.027316591394637,0.0101111284348774,0.0407289208763459,0
1401.88888888889,-0.055,0.0500289653263324,0.00986311683051986,0.0404834925618698,0
1401.89166666667,-0.06,0.0709293127312227,0.00977400210842036,0.0402370539671426,0
1401.89444444444,-0.085,0.0887765000488354,0.00974433721138696,0.0399950650283199,0
1401.89722222222,-0.145,0.102618225879207,0.00963986008490889,0.0397585502973271,0
1401.9,-0.2,0.111863696581913,0.00950393349290049,0.0395290068207356,0
1401.90277777778,-0.21,0.116320221917464,0.00937543627429707,0.0393082528929026,0
1401.90555555556,-0.185,0.116191901297928,0.00928573172461437,0.0390982343483396,0
1401.90833333333,-0.14,0.112042027327829,0.00925666063349414,0.0389008050271782,0
1401.91111111111,-0.08,0.104724033384881,0.0092136885064244,0.0387175019371257,0
1401.91388888889,-0.03,0.0952884821249685,0.00909753256542743,0.0385493355817351,0
1401.91666666667,0,0.0848755110487624,0.00891620897541752,0.0383966147736245,0
1401.91944444444,-0.01,0.0746031697525316,0.0086850220435723,0.0382588224218045,0
1401.92222222222,-0.025,0.0654621340237521,0.00842418544584725,0.0381345545217438,0
1401.925,-0.045,0.0582263843137588,0.00815620526278561,0.0380215292554918,0
1401.92777777778,-0.035,0.0533876936631698,0.0079032962074993,0.0379160218744144,0
1401.93055555556,-0.03,0.0511193591094797,0.00768507709833113,0.037813487250265,0
1401.93333333333,-0.045,0.0512717632225376,0.00751674540613989,0.037710624037046,0
1401.93611111111,-0.08,0.053399335401278,0.0074078691218154,0.0376118118209449,0
1401.93888888889,-0.11,0.0568155728073719,0.00736186387140728,0.0375213850003165,0
1401.94166666667,-0.125,0.0606702405276646,0.00737615122851352,0.0374426249568186,0
1401.94444444444,-0.115,0.0640409241012927,0.00744292739247483,0.0373775203901665,0
1401.94722222222,-0.09,0.0660299218746309,0.0075415661381255,0.0373272129532332,0
1401.95,-0.055,0.0658571351391317,0.00740754413163916,0.0372920028992543,0
1401.95277777778,-0.02,0.0629401568566738,0.00726186798653959,0.0372714040461444,0
1401.95555555556,-0.01,0.0569541115486935,0.00711847339226966,0.0372642356041825,0
1401.95833333333,-0.03,0.0478658232630879,0.0069889350305173,0.0372667082806767,0
1401.96111111111,-0.055,0.0359393893552191,0.00688141256896631,0.0372677464449362,0
1401.96388888889,-0.075,0.0217129777686625,0.00680004996504994,0.0372677318480515,0
1401.96666666667,-0.08,0.00594938795311346,0.00674486520673048,0.0372671099144091,0
1401.96944444444,-0.07,-0.010434631812705,0.00671211346041998,0.037266316376,0
1401.97222222222,-0.045,-0.0264533601440494,0.00669505672674601,0.0372657533252969,0
1401.975,-0.035,-0.0411431352162521,0.00670508103005986,0.0372657616436347,0
1401.97777777778,-0.035,-0.0536507087847878,0.00671742781745792,0.0372659238796897,0
1401.98055555556,-0.01,-0.0633105128435752,0.00674089596360336,0.0372659192182725,0
1401.98333333333,0,-0.0697035469340037,0.00678260748622879,0.0372656517149108,0
1401.98611111111,0.005,-0.0726923911774092,0.00684713881864203,0.0372651143240849,0
1401.98888888889,0.02,-0.0724291553954138,0.00693599670846093,0.0372643463364199,0
1401.99166666667,-0.01,-0.0693357696603535,0.00703557376213306,0.0372634202094803,0
1401.99444444444,-0.035,-0.0640586616342693,0.0069639161676545,0.0372624276123213,0
1401.99722222222,-0.065,-0.0574023030488814,0.00682328826006993,0.0372614661203307,0
1402,-0.065,-0.0502481131376294,0.0066798255713178,0.0372606552290819,0
1402.00277777778,-0.055,-0.0434665929224247,0.00654209824438274,0.0372601839220627,0
1402.00555555556,-0.02,-0.0378312012036956,0.00641784458121856,0.0372602022642057,0
1402.00833333333,0.02,-0.0339423111961111,0.00631294584506478,0.0372606961047537,0
1402.01111111111,0.07,-0.0321686219189663,0.0062306226531993,0.0372615554157068,0
1402.01388888889,0.125,-0.0326117308281259,0.00617095345227085,0.0372626949451754,0
1402.01666666667,0.12,-0.0350973598414098,0.00613078030648933,0.0372640546523836,0
1402.01944444444,0.115,-0.0391941734857217,0.0061040245002629,0.0372656004889124,0
1402.02222222222,0.075,-0.0442584753621519,0.00608238871409918,0.0372673136317775,0
1402.025,0.04,-0.0495005675757638,0.00605637855521041,0.0372691477375254,0
1402.02777777778,0,-0.0540664441538502,0.00601653863882027,0.0372710635382215,0
1402.03055555556,-0.03,-0.0571269654458412,0.00607830604611728,0.0372730334801811,0
1402.03333333333,-0.02,-0.0579658734884207,0.00616748560684117,0.0372750446386508,0
1402.03611111111,0.015,-0.0560580375003928,0.00628590125334563,0.0372771039297027,0
1402.03888888889,0.085,-0.0511301671885989,0.00643100437234682,0.0372792356332167,0
1402.04166666667,0.14,-0.0431978257618469,0.00659559563573116,0.0372814724508572,0
1402.04444444444,0.18,-0.0325747704070514,0.0067680369559011,0.0372838090027731,0
1402.04722222222,0.235,-0.0198532439399621,0.00693296161157535,0.037286226499198,0
1402.05,0.26,-0.00585659673824249,0.00707243975932411,0.0372887237045172,0
1402.05277777778,0.27,0.00843172476617671,0.00716750834805537,0.0372913167185689,0
1402.05555555556,0.23,0.0219564786107152,0.00716937451551364,0.0372940362101437,0
1402.05833333333,0.17,0.0336881337986846,0.00721526183143652,0.0372969185970964,0
1402.06111111111,0.12,0.0427205000587241,0.0073508354033623,0.037300017450997,0
1402.06388888889,0.125,0.0483592395413784,0.00758171596736904,0.0373032987881717,0
1402.06666666667,0.15,0.0501927262094698,0.00790674278155878,0.0373066875865249,0
1402.06944444444,0.15,0.0481382356158611,0.00831749147559043,0.0373101067401228,0
1402.07222222222,0.12,0.042458642619808,0.00879840978008865,0.0373134844516307,0
1402.075,0.08,0.0337474808450945,0.00932758724816148,0.037316759295127,0
1402.07777777778,0.055,0.0228831318086721,0.00974654181349138,0.0373198847177273,0
1402.08055555556,0.06,0.0109557952592741,0.00994852113692807,0.0373228327756245,0
1402.08333333333,0.08,-0.00082652324085864,0.00990360937149917,0.0373256298571241,0
1402.08611111111,0.115,-0.0112447299741413,0.00960388144226627,0.0373283385689048,0
1402.08888888889,0.135,-0.0191784862664397,0.00926604492046215,0.0373310555154602,0
1402.09166666667,0.14,-0.0237091646167912,0.00904324086271531,0.0373339056327356,0
1402.09444444444,0.12,-0.0242063923822406,0.00894794875786815,0.0373370315675855,0
1402.09722222222,0.11,-0.0203900312071932,0.0089840828366802,0.03734057818901,0
1402.1,0.095,-0.0123615839770339,0.00914660599970647,0.0373445400006349,0
1402.10277777778,0.1,-0.000601745744408153,0.00942187427608132,0.0373487331744987,0
1402.10555555556,0.125,0.0140661240807063,0.00978869172801176,0.0373528844293944,0
1402.10833333333,0.135,0.0305437127857105,0.0102199922689166,0.0373567782482582,0
1402.11111111111,0.135,0.04755086490815,0.0105433191747725,0.0373603468784448,0
1402.11388888889,0.16,0.0637359195248413,0.0106183554380122,0.0373635454470029,0
1402.11666666667,0.16,0.0777934379074364,0.010455363403498,0.0373663550774944,0
1402.11944444444,0.155,0.0885787085988942,0.0100880037399646,0.0373687834541365,0
1402.12222222222,0.155,0.0952086088282082,0.00978305267957929,0.037370861799802,0
1402.125,0.145,0.0971395542352495,0.00956874924686247,0.037372682371563,0
1402.12777777778,0.145,0.0942152869004795,0.00945050078184517,0.0373743602933621,0
1402.13055555556,0.12,0.0866799573734183,0.00942526734119074,0.0373759905965975,0
1402.13333333333,0.12,0.0751551069095668,0.00948214173930014,0.0373776378860761,0
1402.13611111111,0.12,0.0605824647794788,0.009603611624933,0.0373793276795833,0
1402.13888888889,0.13,0.0441376378637475,0.00950418435983944,0.0373810414844008,0
1402.14166666667,0.135,0.0271224915888374,0.00932298300437838,0.0373827033705117,0
1402.14444444444,0.15,0.0108460460002003,0.00914940408129295,0.0373841713081285,0
1402.14722222222,0.16,-0.00349515635413128,0.00900634169703943,0.0373854362406845,0
1402.15,0.17,-0.0149261272175612,0.00891244821441433,0.0373865509598382,0
1402.15277777778,0.18,-0.0227817718475662,0.00888050667295701,0.0373875666100092,0
1402.15555555556,0.165,-0.0267661646213666,0.00891640570698681,0.0373885317540632,0
1402.15833333333,0.14,-0.0269770834153206,0.00901880652600244,0.0373894911776179,0
1402.16111111111,0.115,-0.023893327617096,0.00917952442997833,0.0373904592826526,0
1402.16388888889,0.115,-0.0183258086657513,0.00938457789808214,0.0373913305146025,0
1402.16666666667,0.125,-0.0113368074179702,0.00961579316340088,0.0373920016553254,0
1402.16944444444,0.15,-0.0041348209046504,0.00965112407298037,0.0373925106433097,0
1402.17222222222,0.14,0.00204521499087404,0.00942872435833392,0.0373929488247407,0
1402.175,0.13,0.00606506943967621,0.00923920767629412,0.0373934384519705,0
1402.17777777778,0.14,0.00699803992701033,0.00909685938314724,0.0373940477238021,0
1402.18055555556,0.135,0.00422443200522173,0.00901055037390483,0.0373947250429248,0
1402.18333333333,0.135,-0.00250161745792664,0.00898292113113132,0.0373954597025303,0
1402.18611111111,0.13,-0.013020678139689,0.00901026099380949,0.0373962351436779,0
1402.18888888889,0.115,-0.0267753558485654,0.00908310168326382,0.0373969555020309,0
1402.19166666667,0.11,-0.0428562032687425,0.00918747039845532,0.0373973783079208,0
1402.19444444444,0.1,-0.0600823298722979,0.00930667809486221,0.0373972663169767,0
1402.19722222222,0.1,-0.0771094720063464,0.00942345985726878,0.0373965196391978,0
1402.2,0.12,-0.0925555619131049,0.00952224262253167,0.0373951522704716,0
1402.20277777778,0.15,-0.10513201271743,0.00945318979910156,0.0373932242969314,0
1402.20555555556,0.165,-0.113768200818714,0.00941996365229295,0.0373908375758748,0
1402.20833333333,0.175,-0.117717064531289,0.009421804989214,0.0373881293806584,0
1402.21111111111,0.165,-0.116631326728975,0.00945060867073266,0.0373852597456155,0
1402.21388888889,0.155,-0.110602460044278,0.00949125769240132,0.0373823980905899,0
1402.21666666667,0.14,-0.100157918415449,0.00952279295993706,0.0373797101576434,0
1402.21944444444,0.135,-0.0862160527677479,0.00952034517508381,0.0373773453125556,0
1402.22222222222,0.14,-0.0700021545332695,0.00958301649343584,0.037375425327212,0
1402.225,0.145,-0.0529328529269653,0.00973060136873122,0.0373740356728983,0
1402.22777777778,0.14,-0.0364792705784584,0.00998321011962411,0.0373731154524141,0
1402.23055555556,0.135,-0.0220216069744749,0.0103535373544191,0.0373725327260422,0
1402.23333333333,0.14,-0.0107089391486702,0.0108445177666835,0.037372154290986,0
1402.23611111111,0.17,-0.00333787526507906,0.0114477409664407,0.037371856857281,0
1402.23888888889,0.18,-0.000262256278501526,0.0121428340241369,0.0373715417849577,0
1402.24166666667,0.17,-0.00134348019725308,0.0128979390564914,0.0373711433553415,0
1402.24444444444,0.155,-0.00594744089114814,0.0136713157936883,0.0373706351483819,0
1402.24722222222,0.155,-0.0129898409096396,0.0144139941411725,0.037370034205215,0
1402.25,0.175,-0.0210271341870007,0.0150732988155064,0.0373692817582968,0
1402.25277777778,0.195,-0.0283859917109161,0.0155220984272676,0.0373684902629977,0
1402.25555555556,0.195,-0.0333203689182548,0.0154469262055761,0.0373692575463971,0
1402.25833333333,0.21,-0.0341823536448447,0.0153277357888927,0.0373702042202483,0
1402.26111111111,0.215,-0.0295912774908472,0.015455475147042,0.0373710558947122,0
1402.26388888889,0.21,-0.0185852666441328,0.0158399204623836,0.0373733919900203,0
1402.26666666667,0.215,-0.000740552186476497,0.0164734094891996,0.0373790629770741,0
1402.26944444444,0.22,0.0237536153314531,0.017330528325061,0.0373900910148402,0
1402.27222222222,0.225,0.0540728947072985,0.0183692893271439,0.0374085426467752,0
1402.275,0.25,0.0887924941038131,0.0195337696150338,0.0374365155749797,0
1402.27777777778,0.275,0.125977334911052,0.0207580477617005,0.0374757659083563,0
1402.28055555556,0.295,0.16332147075609,0.0219711531545206,0.037527570694947,0
1402.28333333333,0.34,0.198325846939126,0.0230280723401759,0.0375926523963421,0
1402.28611111111,0.38,0.228499707117451,0.0236962394531923,0.0376710583832491,0
1402.28888888889,0.39,0.25156840638571,0.0239979113010048,0.0377620755024519,0
1402.29166666667,0.385,0.2656693329291,0.0239963641474794,0.0378641891969034,0
1402.29444444444,0.36,0.269518205184743,0.0237902853314712,0.0379750923714565,0
1402.29722222222,0.365,0.262530185639733,0.0237356132797499,0.0380917473923353,0
1402.3,0.375,0.244883878605703,0.023901966311602,0.0382105013031638,0
1402.30277777778,0.375,0.217521066226318,0.0239278238202111,0.0383275604442089,0
1402.30555555556,0.375,0.182080582842349,0.0236271477999136,0.0384473527421488,0
1402.30833333333,0.36,0.140770554253862,0.0231231826313712,0.0385739400859433,0
1402.31111111111,0.33,0.0961888215894745,0.0226474137259916,0.0387106764542062,0
1402.31388888889,0.275,0.0511062254148629,0.0222700767978689,0.0388600468432685,0
1402.31666666667,0.255,0.00823109527793529,0.0220507254360838,0.0390235798242164,0
1402.31944444444,0.24,-0.0300245801004248,0.0220317277911523,0.0392018401472873,0
1402.32222222222,0.22,-0.0617564604031803,0.0222329812807251,0.0393944929681636,0
1402.325,0.195,-0.0857372673745509,0.0226483749085589,0.0396004364928094,0
1402.32777777778,0.175,-0.101528150979604,0.0232444042514803,0.0398181229718504,0
1402.33055555556,0.145,-0.109520576804729,0.0239611798881888,0.0400458033004782,0
1402.33333333333,0.135,-0.110903148664406,0.0247158783490435,0.0402816534258331,0
1402.33611111111,0.11,-0.107554260956984,0.0254084806056388,0.040523997293043,0
1402.33888888889,0.12,-0.101868038306684,0.0254475108944958,0.0407715026933164,0
1402.34166666667,0.135,-0.0965270944030228,0.0252081852918207,0.0410202223188048,0
1402.34444444444,0.14,-0.0942406881449349,0.0253511550053574,0.0412661236198869,0
1402.34722222222,0.135,-0.0974704127148601,0.0259579912607603,0.0415089639775767,0
1402.35,0.135,-0.108167281976782,0.0270822783889141,0.0417478671476592,0
1402.35277777778,0.145,-0.12754379043707,0.0287423341887636,0.041981425092971,0
1402.35555555556,0.145,-0.155902200341816,0.0309162293077693,0.0422077305797366,0
1402.35833333333,0.13,-0.19253610944604,0.0335396328161053,0.0424246996011834,0
1402.36111111111,0.105,-0.23571659648869,0.0365068117687538,0.0426303278517466,0
1402.36388888889,0.065,-0.282767387878907,0.0396748798136934,0.0428229435709532,0
1402.36666666667,0.05,-0.330226099001951,0.0428711412940333,0.0430017064996504,0
1402.36944444444,0.055,-0.374081291734759,0.0459031319991928,0.0431666710571377,0
1402.37222222222,0.09,-0.410068473642934,0.0485707351404198,0.0433187486861419,0
1402.375,0.145,-0.43400281133984,0.0506795693057926,0.0434597511196789,0
1402.37777777778,0.19,-0.442122709261704,0.0518237615457982,0.0435935433193636,0
1402.38055555556,0.15,-0.431416844705254,0.0519307111699901,0.0437251517135978,0
1402.38333333333,0.085,-0.399907910633305,0.052405998181261,0.0438591232795238,0
1402.38611111111,0.01,-0.34686917584265,0.0539010328990825,0.0439911127412589,0
1402.38888888889,-0.02,-0.272954820537704,0.0561797146190612,0.0441164875898981,0
1402.39166666667,-0.005,-0.180231469677682,0.0588757380822504,0.0442307535824655,0
1402.39444444444,0.07,-0.0721059150519051,0.0617727160859072,0.0443300453927545,0
1402.39722222222,0.18,0.0468479168267687,0.0646643241069183,0.0444130665079271,0
1402.4,0.33,0.171151781831935,0.0673707389831969,0.0444795047330736,0
1402.40277777778,0.505,0.294757635437939,0.0697523329451368,0.0445299836962622,0
1402.40555555556,0.72,0.411430025339165,0.0717195119873223,0.0445659624631719,0
1402.40833333333,0.94,0.515148639393844,0.0732379246678089,0.0445894569311399,0
1402.41111111111,1.165,0.600501556314554,0.0743286679623552,0.0446028428376471,0
1402.41388888889,1.36,0.663040318970041,0.0750635463260963,0.0446087762421481,0
1402.41666666667,1.52,0.699570781637624,0.0755558618423759,0.0446100082385643,0
1402.41944444444,1.625,0.708358543389491,0.0759475913362287,0.0446092093480999,0
1402.42222222222,1.605,0.689234276158973,0.075655773120532,0.0446088143783931,0
1402.425,1.485,0.643591863084063,0.0750020705524822,0.044609360029307,0
1402.42777777778,1.25,0.574280368634756,0.074007787094935,0.0446073301053166,0
1402.43055555556,0.96,0.485398818940346,0.0725728041942033,0.0446056325343386,0
1402.43333333333,0.625,0.38200994837401,0.0706415616634221,0.0446044181159238,0
1402.43611111111,0.35,0.269794905859942,0.0682103666417945,0.0446013725852371,0
1402.43888888889,0.16,0.154674965343639,0.065330097806445,0.0445966678752605,0
1402.44166666667,0.055,0.0424282534047327,0.0621040699911831,0.0445907874149516,0
1402.44444444444,0.045,-0.0616707302088639,0.0586812388687508,0.044584573294727,0
1402.44722222222,0.065,-0.153163409066019,0.0552453213280185,0.0445783811785382,0
1402.45,0.105,-0.228650157340669,0.0520007510531974,0.0445703327973488,0
1402.45277777778,0.155,-0.285948811797337,0.0491566518114088,0.0445582807121078,0
1402.45555555556,0.165,-0.324160299466349,0.0470901139865373,0.0445399264892029,0
1402.45833333333,0.175,-0.343640352709945,0.0460503774974291,0.0445130095423143,0
1402.46111111111,0.145,-0.345883489011194,0.0460295433899126,0.0444754605595178,0
1402.46388888889,0.115,-0.333331929412689,0.0456452541892842,0.0444254519830995,0
1402.46666666667,0.095,-0.309127414890903,0.0442753194770496,0.0443615653301081,0
1402.46944444444,0.07,-0.276827563707176,0.0419645986728223,0.0442829475755409,0
1402.47222222222,0.06,-0.240110246239808,0.0389831792413631,0.0441894435860472,0
1402.475,0.06,-0.202489347241233,0.0356845512081148,0.0440817237934116,0
1402.47777777778,0.065,-0.167063311587696,0.0322660084301445,0.0439616118418829,0
1402.48055555556,0.06,-0.136314253225123,0.0289151103532547,0.0438315518857544,0
1402.48333333333,0.05,-0.111970502169657,0.0257989067430817,0.0436947262570538,0
1402.48611111111,0.05,-0.0949397209496677,0.0230552354391154,0.0435549393653402,0
1402.48888888889,0.06,-0.0853136448647992,0.0207865617567179,0.0434164467281762,0
1402.49166666667,0.085,-0.0824396059559591,0.0190566226949156,0.0432761867331941,0
1402.49444444444,0.1,-0.0850487716901732,0.0178899245220127,0.0431308799816214,0
1402.49722222222,0.08,-0.0914268761736164,0.0172739350296617,0.0429778452223556,0
1402.5,0.05,-0.0996104488075055,0.0171636269618622,0.0428150989702633,0
1402.50277777778,0,-0.107590329219799,0.0174878796714645,0.0426413974620905,0
1402.50555555556,-0.035,-0.113504635639907,0.0172915167022348,0.0424562197882944,0
1402.50833333333,-0.045,-0.115805226766621,0.0165367997660008,0.0422596957881749,0
1402.51111111111,-0.025,-0.113384840584526,0.0154785845455515,0.0420526667370879,0
1402.51388888889,-0.01,-0.105656182982392,0.0143727106931243,0.0418364479548515,0
1402.51666666667,0.01,-0.0925788810294634,0.0133031151549354,0.041612323621104,0
1402.51944444444,0.03,-0.0746349847429628,0.0123368158210916,0.0413815303015622,0
1402.52222222222,0.035,-0.0527581774990745,0.0115208491906809,0.04114511993793,0
1402.525,0.045,-0.0282256617004997,0.010881091133777,0.0409038234745987,0
1402.52777777778,0.04,-0.00252451963287345,0.0104228934151266,0.040660389062978,0
1402.53055555556,0.045,0.0227939958495115,0.0101333303887244,0.0404204632360908,0
1402.53333333333,0.075,0.046258403291995,0.0100837139313452,0.0401857926731169,0
1402.53611111111,0.075,0.066606195682829,0.0101293100668251,0.0399572884961876,0
1402.53888888889,0.075,0.0828873149602394,0.010115308292771,0.0397363180959484,0
1402.54166666667,0.05,0.0945337798399545,0.0100856471676251,0.0395243365578911,0
1402.54444444444,0.03,0.101390813330796,0.010080327453017,0.0393227842849667,0
1402.54722222222,0.01,0.103708536701797,0.0101316944486855,0.0391329086227075,0
1402.55,0.015,0.1020969269111,0.0102617415967725,0.0389555904303821,0
1402.55277777778,0.035,0.0974499511641201,0.0103136693706476,0.0387911909762751,0
1402.55555555556,0.07,0.0908473227730238,0.0100862740955591,0.0386394330108514,0
1402.55833333333,0.09,0.0834439678009576,0.009707225221011,0.0384992637942956,0
1402.56111111111,0.075,0.0763579417202943,0.00927748902181697,0.0383690070353721,0
1402.56388888889,0.05,0.0705671743150417,0.00882657471451354,0.038246289181406,0
1402.56666666667,0.03,0.0668241269359141,0.00838761472343319,0.0381278066650416,0
1402.56944444444,0.02,0.065595378616708,0.00799404545379298,0.0380088146789941,0
1402.57222222222,0.035,0.0670305402615505,0.00767641505996182,0.037892422130033,0
1402.575,0.06,0.0709619939246804,0.00745959506365366,0.0377824771931401,0
1402.57777777778,0.075,0.0769340469605556,0.00736062140639391,0.0376826820926718,0
1402.58055555556,0.075,0.0842574469652144,0.0073873229141704,0.0375963756897698,0
1402.58333333333,0.07,0.0920830556538718,0.00753781789777928,0.0375259006809715,0
1402.58611111111,0.07,0.0994870049483673,0.00780087984308269,0.0374718179693375,0
1402.58888888889,0.085,0.105558963369605,0.00815709781093208,0.0374338171502803,0
1402.59166666667,0.12,0.109485254994077,0.00846954695055869,0.0374108071852949,0
1402.59444444444,0.15,0.110619449618645,0.00861017281072644,0.0374009319366415,0
1402.59722222222,0.185,0.108534565027612,0.00862202123868738,0.0374018916221415,0
1402.6,0.2,0.103053018517738,0.00855432520164241,0.0374016722655087,0
1402.60277777778,0.165,0.0942527261856492,0.00845713026009797,0.0374005408883221,0
1402.60555555556,0.14,0.0824500501284043,0.00837614192081319,0.0373989260320867,0
1402.60833333333,0.1,0.0681624168803443,0.00834827500886244,0.0373972364837632,0
1402.61111111111,0.085,0.0520551828190629,0.00839829596005076,0.0373958419301668,0
1402.61388888889,0.075,0.034878555269516,0.0084378501650614,0.0373944364985763,0
1402.61666666667,0.085,0.017400998939215,0.00838972641826495,0.037392588112884,0
1402.61944444444,0.105,0.00034553593628637,0.00826763040286711,0.0373899838636827,0
1402.62222222222,0.12,-0.0156652834680864,0.00808995210629756,0.0373867419254362,0
1402.625,0.13,-0.0301511133727262,0.00787798422178271,0.0373828331784609,0
1402.62777777778,0.115,-0.0427991578113598,0.00765401706537477,0.0373782733688375,0
1402.63055555556,0.11,-0.0534717926512288,0.00744980066788081,0.0373731183551277,0
1402.63333333333,0.11,-0.062196918343073,0.00736523214837747,0.0373674526651404,0
1402.63611111111,0.095,-0.0691431511450366,0.00742985325944833,0.0373613783116119,0
1402.63888888889,0.1,-0.0745833210427988,0.00751906486074056,0.0373550675016615,0
1402.64166666667,0.105,-0.0788506938186733,0.00754961098723788,0.0373488095224086,0
1402.64444444444,0.12,-0.0822927993846672,0.00752165069470288,0.0373428963202393,0
1402.64722222222,0.14,-0.0852277063172231,0.00744006391786719,0.0373375538844454,0
1402.65,0.155,-0.0879070622208904,0.00731360536730113,0.0373328092696876,0
1402.65277777778,0.15,-0.0904892958110413,0.0071537852811279,0.0373285969290637,0
1402.65555555556,0.13,-0.0930251608170742,0.00697359427570041,0.0373248622223459,0
1402.65833333333,0.115,-0.0954564294064122,0.00678619644592471,0.0373215590062439,0
1402.66111111111,0.105,-0.097627158810554,0.00660371056384497,0.0373186472631285,0
1402.66388888889,0.095,-0.0993056988482808,0.00643618466815702,0.0373160272480822,0
1402.66666666667,0.12,-0.100214600606946,0.00629084631021302,0.037313556473027,0
1402.66944444444,0.15,-0.100064917713033,0.00617168163872345,0.0373111052753795,0
1402.67222222222,0.175,-0.098591113154158,0.00607936417448511,0.0373085672491532,0
1402.675,0.21,-0.0955829063085356,0.00601152149232877,0.0373059813196157,0
1402.67777777778,0.24,-0.0909108852800279,0.00596329791458067,0.0373035366155845,0
1402.68055555556,0.25,-0.084543501101732,0.00592814620230457,0.0373013321781602,0
1402.68333333333,0.235,-0.076554057253158,0.0058987630412303,0.0372993896383332,0
1402.68611111111,0.23,-0.0671173977241483,0.0058680731188215,0.0372977336132725,0
1402.68888888889,0.21,-0.0564970624425041,0.00583016529340352,0.0372963825087352,0
1402.69166666667,0.21,-0.0450246108802463,0.0057810915318079,0.0372953478066912,0
1402.69444444444,0.23,-0.0330735224880965,0.00571945401078002,0.0372946346835092,0
1402.69722222222,0.265,-0.0210305032212907,0.0056467265268613,0.0372942431778116,0
1402.7,0.295,-0.00926713079867467,0.00556728119263676,0.0372941626060003,0
1402.70277777778,0.325,0.00188543763074754,0.005496738799264,0.0372940736706474,0
1402.70555555556,0.335,0.0121564551550113,0.00545077349869684,0.0372939520094459,0
1402.70833333333,0.325,0.0213487241204476,0.00543811888120323,0.037293779826431,0
1402.71111111111,0.315,0.0293441524974045,0.00545758915348182,0.0372935415807851,0
1402.71388888889,0.32,0.0361018404067149,0.00543632621656663,0.037293224709119,0
1402.71666666667,0.315,0.0416495894539836,0.00536576457739397,0.0372928198462552,0
1402.71944444444,0.305,0.0460703596957389,0.00523984724398849,0.0372923218312596,0
1402.72222222222,0.315,0.0494856208004596,0.00505574974797015,0.0372917301894754,0
1402.725,0.305,0.0520377186165982,0.0048143647052171,0.0372910496443896,0
1402.72777777778,0.29,0.0538732986120329,0.00452050139025107,0.0372903053718584,0
1402.73055555556,0.295,0.0551295154294273,0.00418277756862711,0.0372896061275426,0
1402.73333333333,0.29,0.0559242609097695,0.00381320538727161,0.0372891764902593,0
1402.73611111111,0.27,0.0563510288821595,0.0034264975643842,0.0372890057851787,0
1402.73888888889,0.27,0.0564783827789857,0.00303914258236313,0.0372890746986017,0
1402.74166666667,0.27,0.0563533827826539,0.00266831637082656,0.0372893591527584,0
1402.74444444444,0.265,0.0560078364613748,0.00233071165852279,0.0372898223502013,0
1402.74722222222,0.275,0.055465918610024,0.00204137373922842,0.037290293663853,0
1402.75,0.295,0.0547515978200321,0.0018126322524633,0.0372906823732533,0
1402.75277777778,0.3,0.0538944184316974,0.00165321262577685,0.0372909537806186,0
1402.75555555556,0.29,0.052932499122082,0.00156759845343689,0.037291088967844,0
1402.75833333333,0.285,0.0519120807623332,0.00155569815279715,0.0372910848546836,0
1402.76111111111,0.28,0.0508835239685691,0.0016128470076557,0.0372910404535014,0
1402.76388888889,0.28,0.0498942463598336,0.00173015076364899,0.0372911224754634,0
1402.76666666667,0.285,0.0489796229648388,0.0018951510870317,0.0372914626266518,0
1402.76944444444,0.295,0.0481532785102893,0.00209276833277741,0.0372920712869164,0
1402.77222222222,0.275,0.047398420207341,0.00230645505273162,0.0372929508470129,0
1402.775,0.245,0.0466618586789262,0.0025194762043548,0.0372941019617132,0
1402.77777777778,0.22,0.0458521338907316,0.0027162204992768,0.0372954299724167,0
1402.78055555556,0.195,0.044842721602676,0.00288344276342657,0.0372967518967632,0
1402.78333333333,0.21,0.0434806898300629,0.00300271939932553,0.0372980513627248,0
1402.78611111111,0.24,0.0416004719653361,0.00306192345494927,0.0372993127955915,0
1402.78888888889,0.255,0.0390417061160882,0.00306195040588991,0.0373005173376551,0
1402.79166666667,0.265,0.0356694469130385,0.0030660587613229,0.0373016440239336,0
1402.79444444444,0.26,0.0313945700015869,0.00310291098446356,0.037302670834564,0
1402.79722222222,0.24,0.0261919296728706,0.00315973771087634,0.0373035765875473,0
1402.8,0.265,0.0201138426402174,0.00322073927655988,0.0373043437560289,0
1402.80277777778,0.275,0.0132967726116912,0.00326833100712703,0.0373049620046447,0
1402.80555555556,0.305,0.00595966541745412,0.00328456970545491,0.0373054317405433,0
1402.80833333333,0.3,-0.00160681470460635,0.00325340730977587,0.0373057446606176,0
1402.81111111111,0.29,-0.00905994640067262,0.00329068518443575,0.0373060220764577,0
1402.81388888889,0.245,-0.0160323052780872,0.00340553738695531,0.0373064453337735,0
1402.81666666667,0.215,-0.0221646578032151,0.00359964066945105,0.0373073032210239,0
