time_s,raw_ecg,filtered_ecg,diff_envelope,threshold,is_r_peak
1189.37777777778,-0.165,-0.0942772434050598,0.0183741100627693,0.043128866759249,0
1189.38055555556,-0.155,-0.092725255169491,0.017410043332537,0.0431305860779584,0
1189.38333333333,-0.16,-0.0834792733156999,0.016643661601718,0.0431327566060357,0
1189.38611111111,-0.145,-0.067028057546923,0.0161194077911982,0.0431353850348347,0
1189.38888888889,-0.145,-0.0444964904897185,0.0158562054266168,0.0431385383610463,0
1189.39166666667,-0.12,-0.0175306650757044,0.0158480275911949,0.0431423428975991,0
1189.39444444444,-0.09,0.0118581623294628,0.0160664564286245,0.0431468924876828,0
1189.39722222222,-0.075,0.0414762888811114,0.016464907591744,0.0431521290073442,0
1189.4,-0.085,0.0691406198881832,0.0164684426711824,0.0431579321998079,0
1189.40277777778,-0.08,0.0928652811872603,0.0160575263929588,0.0431641222497923,0
1189.40555555556,-0.075,0.111025990871099,0.0154948675276531,0.0431704717855666,0
1189.40833333333,-0.06,0.122488690571069,0.0150041150561246,0.043176719383542,0
1189.41111111111,-0.045,0.126692330978859,0.0146351981910856,0.0431825882619969,0
1189.41388888889,-0.02,0.123679886792845,0.014423630655919,0.0431876877198488,0
1189.41666666667,-0.02,0.114076271709105,0.0143882352147981,0.0431919797520882,0
1189.41944444444,-0.03,0.0990164345243596,0.01453048571965,0.0431955458303456,0
1189.42222222222,-0.02,0.0800311484747494,0.0147284017851676,0.0431985376442002,0
1189.425,0.01,0.0589015021550817,0.0145293769244223,0.0432011790746773,0
1189.42777777778,0.015,0.037495574957214,0.0139966784390513,0.0432040058417816,0
1189.43055555556,0.015,0.0176020382744609,0.0134158611103286,0.0432076523348011,0
1189.43333333333,0.005,0.000775378545756743,0.0128346212966356,0.0432121394682888,0
1189.43611111111,0.01,-0.0117938842001009,0.0122978929788627,0.0432170170009792,0
1189.43888888889,0.035,-0.0193730724099373,0.0118438320013756,0.043221748872915,0
1189.44166666667,0.045,-0.0217377845259195,0.0115006367468417,0.043225741836928,0
1189.44444444444,0.045,-0.0191753228568069,0.0112844593997522,0.0432384767084097,0
1189.44722222222,0.08,-0.0124417726419951,0.0111985526759826,0.0432657371184731,0
1189.45,0.07,-0.00267748305516394,0.0112336785544656,0.0433096420064197,0
1189.45277777778,0.055,0.0087106873092676,0.0113696889722106,0.0433717149978729,0
1189.45555555556,0.06,0.0201891777933666,0.0113703292305861,0.0434528687735418,0
1189.45833333333,0.07,0.0302466114552335,0.0111231435082645,0.0435529538238632,0
1189.46111111111,0.1,0.0375381655908114,0.0108722305294973,0.043670590080233,0
1189.46388888889,0.1,0.041012426482991,0.0106504883647196,0.0438031174450618,0
1189.46666666667,0.085,0.0400094667899748,0.0104853503529065,0.043946572464341,0
1189.46944444444,0.08,0.0343216022657288,0.0103961253584601,0.0440966632216362,0
1189.47222222222,0.095,0.0242117314488097,0.0103922130460005,0.0442490209218504,0
1189.475,0.12,0.0103880252590569,0.010472340930852,0.0444033424200033,0
1189.47777777778,0.135,-0.00606233294546437,0.0106248700178338,0.0445636778860604,0
1189.48055555556,0.14,-0.0237740015710532,0.0108291140445923,0.0447334911292269,0
1189.48333333333,0.105,-0.0412295198045358,0.0110575231217143,0.0449154876060573,0
1189.48611111111,0.105,-0.0568989344990545,0.0111017829528899,0.0451115031525062,0
1189.48888888889,0.085,-0.0693802846750316,0.0109206897404521,0.0453224606602805,0
1189.49166666667,0.09,-0.0775282271974275,0.0108095924752533,0.0455483962786664,0
1189.49444444444,0.11,-0.0805592388763317,0.0107932893512744,0.0457885563760457,0
1189.49722222222,0.115,-0.0781240097399201,0.0108888513974712,0.0460411577712567,0
1189.5,0.11,-0.0703406489394221,0.0111039645764198,0.0463048232204119,0
1189.50277777778,0.105,-0.0577858856683647,0.0114361752170418,0.0465780688650407,0
1189.50555555556,0.11,-0.0414452416912764,0.0118730939012609,0.0468563065161692,0
1189.50833333333,0.125,-0.0226268393323554,0.0123243509569498,0.0471346872566064,0
1189.51111111111,0.145,-0.00284675971093092,0.0125079303139977,0.0474101396109272,0
1189.51388888889,0.145,0.016303608678468,0.0124095052199749,0.0476764353337299,0
1189.51666666667,0.15,0.0332962149467979,0.0120439538044477,0.0479269602982203,0
1189.51944444444,0.155,0.0467984799326293,0.0114996817691223,0.0481601198028014,0
1189.52222222222,0.175,0.0557870552851501,0.0110273465472661,0.0483744534935018,0
1189.525,0.175,0.059633052058355,0.0106489827391309,0.0485688607725016,0
1189.52777777778,0.185,0.0581512050042391,0.0103787106898754,0.0487428301626278,0
1189.53055555556,0.195,0.0516087361081724,0.0102220101091882,0.0488966458629427,0
1189.53333333333,0.165,0.0406933563391315,0.0101758688763312,0.0490316301403579,0
1189.53611111111,0.135,0.0264435665153228,0.0102297731940712,0.0491510664696965,0
1189.53888888889,0.135,0.0101478506639463,0.0101994743714335,0.0492560953664616,0
1189.54166666667,0.145,-0.00677781204966817,0.00999792556396843,0.0493432542068802,0
1189.54444444444,0.14,-0.0229227147842021,0.00975332293246382,0.0494100903070269,0
1189.54722222222,0.13,-0.0370121290921959,0.0094849632032312,0.0494568076686267,0
1189.55,0.1,-0.04802379497083,0.00920829608360696,0.0494853436673025,0
1189.55277777778,0.09,-0.0552793380610879,0.00893313466178031,0.0494992456574403,0
1189.55555555556,0.09,-0.0585020532005544,0.00866257223607479,0.0494998599575299,0
1189.55833333333,0.085,-0.0578355840204711,0.00839273392145897,0.0494836826710453,0
1189.56111111111,0.095,-0.053821636828713,0.00811340662816264,0.049447670685718,0
1189.56388888889,0.075,-0.0473386690311499,0.00780950047127454,0.049390226974261,0
1189.56666666667,0.05,-0.0395071437650406,0.00789055271727261,0.0493111335351391,0
1189.56944444444,0.03,-0.0315701104289923,0.00829711570973705,0.049211034143894,0
1189.57222222222,0.025,-0.0247602636594486,0.00877904148746914,0.0490912210361773,0
1189.575,0.035,-0.0201660267660867,0.0093458520864643,0.048953400947844,0
1189.57777777778,0.04,-0.0186094634861679,0.00999910049474748,0.0487995199957848,0
1189.58055555556,0.03,-0.0205479088701793,0.0107306335970638,0.0486335108321231,0
1189.58333333333,0,-0.026009195827603,0.0115217384484024,0.0484593513124977,0
1189.58611111111,-0.01,-0.0345674076569454,0.0123433166867557,0.0482817888701558,0
1189.58888888889,-0.01,-0.0453624635467635,0.0131571374695419,0.0481059618425122,0
1189.59166666667,-0.005,-0.057162861935215,0.0139181166056227,0.0479369948304776,0
1189.59444444444,-0.005,-0.0684669199791538,0.0145774679888902,0.0477795996616934,0
1189.59722222222,-0.01,-0.0776342151236251,0.0150864825849676,0.047636247332034,0
1189.6,-0.01,-0.0830359886038628,0.0153546555104247,0.0475041456759422,0
1189.60277777778,-0.005,-0.0832112854066288,0.0152717300645827,0.0473833348942983,0
1189.60555555556,0.01,-0.07701477349948,0.0154445202854991,0.0472770909108804,0
1189.60833333333,0.04,-0.0637425996638952,0.0158828588156706,0.0471842131131442,0
1189.61111111111,0.07,-0.043224283213598,0.0165801339604991,0.047101536720582,0
1189.61388888889,0.085,-0.0158713960736975,0.0175128035134429,0.0470249301816944,0
1189.61666666667,0.09,0.0173225975903235,0.0186413019173039,0.04695019893101,0
1189.61944444444,0.095,0.0548327734088732,0.0199123277212902,0.0468759152005268,0
1189.62222222222,0.125,0.0947004768113082,0.0211286885503858,0.0468059949123411,0
1189.625,0.15,0.134671148458087,0.0221119251916535,0.0467443040474619,0
1189.62777777778,0.185,0.172361365466881,0.0228216963971855,0.0466933518965867,0
1189.63055555556,0.21,0.205441426291858,0.0232524552659509,0.0466544193612845,0
1189.63333333333,0.24,0.231818159496872,0.0234342568948115,0.0466280654922422,0
1189.63611111111,0.25,0.249802297922584,0.023430214633604,0.0466143005519307,0
1189.63888888889,0.28,0.258245781940923,0.0233307652467835,0.0466123931185148,0
1189.64166666667,0.275,0.256636672678582,0.0232451874790325,0.0466209724546199,0
1189.64444444444,0.285,0.245142788474443,0.023291068406776,0.0466298849838831,0
1189.64722222222,0.29,0.224599445833362,0.0231552598565549,0.0466375730137531,0
1189.65,0.295,0.196441433297288,0.022876084187767,0.0466445352051217,0
1189.65277777778,0.28,0.162584169492373,0.0225145249683488,0.0466512615369358,0
1189.65555555556,0.275,0.125263478887043,0.0221364006971036,0.0466582000489895,0
1189.65833333333,0.275,0.08684716729152,0.0218059826303698,0.0466657292269084,0
1189.66111111111,0.275,0.0496342578637355,0.0215795027820895,0.0466735838743179,0
1189.66388888889,0.24,0.0156591083095486,0.0214991196683184,0.0466814298990747,0
1189.66666666667,0.205,-0.0134824684802219,0.0215878943499296,0.0466891789659589,0
1189.66944444444,0.18,-0.0367695315642346,0.0218462668660866,0.046696769784097,0
1189.67222222222,0.165,-0.0538421771896438,0.0222504168573662,0.0467041647637784,0
1189.675,0.155,-0.065029009658566,0.022752749433601,0.0467113455047736,0
1189.67777777778,0.15,-0.071312272585244,0.0232845787822844,0.0467183076307309,0
1189.68055555556,0.12,-0.0742322908007023,0.0237609007253754,0.0467250552851501,0
1189.68333333333,0.095,-0.075738134508028,0.0239759928810055,0.0467315681440364,0
1189.68611111111,0.085,-0.0779961984587673,0.0238967562274885,0.0467379421337065,0
1189.68888888889,0.085,-0.0831722778995021,0.0241540540294611,0.0467443490717861,0
1189.69166666667,0.08,-0.0932053769866704,0.0248219460948668,0.0467508144948696,0
1189.69444444444,0.1,-0.109592660260461,0.025950687599064,0.0467573556514394,0
1189.69722222222,0.1,-0.133204529989202,0.0275598893130283,0.0467639993176293,0
1189.7,0.085,-0.164146790207622,0.0296336213241878,0.0467707805011873,0
1189.70277777778,0.06,-0.201683383310695,0.032117960427089,0.0467777401010413,0
1189.70555555556,0.06,-0.244228520724199,0.0349213129265031,0.0467849218230165,0
1189.70833333333,0.085,-0.289411540701547,0.037917644199631,0.0467921919774101,0
1189.71111111111,0.09,-0.334211951273632,0.0409525287328819,0.046799376684891,0
1189.71388888889,0.09,-0.375156329189455,0.0438517158981512,0.0468063822098158,0
1189.71666666667,0.08,-0.408563518726987,0.046431704307806,0.0468131331119999,0
1189.71944444444,0.075,-0.430820339094964,0.0485116471461852,0.0468195721234697,0
1189.72222222222,0.095,-0.438667120870576,0.0499257862321684,0.0468255925659174,0
1189.725,0.11,-0.429471099618428,0.0505355442823346,0.0468311502210331,0
1189.72777777778,0.1,-0.401466120720143,0.0506749606590317,0.0468362668356621,0
1189.73055555556,0.095,-0.353939238287304,0.0515716644698107,0.046841024713387,0
1189.73333333333,0.07,-0.28734847086067,0.0530925546376174,0.0468455514774754,0
1189.73611111111,0.03,-0.203360930550374,0.0550791430676027,0.0468499921811863,0
1189.73888888889,0.04,-0.104806390631226,0.0573610124338195,0.0468544936950671,0
1189.74166666667,0.09,0.00445235278069192,0.0597696501315041,0.0468591374458927,0
1189.74444444444,0.205,0.119724724817888,0.0621515406568588,0.0468639040419944,0
1189.74722222222,0.325,0.235759908528368,0.0643794779146968,0.0468685688922026,0
1189.75,0.5,0.347058623076658,0.0663612218559363,0.0468730511309889,0
1189.75277777778,0.68,0.448207696494875,0.0680448561108342,0.0468772749796626,0
1189.75555555556,0.905,0.534214192843787,0.0694204850305282,0.0468811688767508,0
1189.75833333333,1.175,0.600815798083463,0.0705182160286241,0.0468846658697088,0
1189.76111111111,1.44,0.644745849792434,0.0714026807192556,0.0468877033052062,0
1189.76388888889,1.635,0.663934676954579,0.0721646307620916,0.0468902486830827,1
1189.76666666667,1.72,0.657633538079624,0.0722761702597534,0.046892442616207,0
1189.76944444444,1.6,0.626453048126298,0.0714365279120774,0.0468944694366767,0
1189.77222222222,1.295,0.572314134172736,0.0704010785926066,0.0468964699278355,0
1189.775,0.9,0.498315786429373,0.0690872266116436,0.0468984835270822,0
1189.77777777778,0.54,0.408529705080344,0.0674410451032695,0.0469005287415239,0
1189.78055555556,0.26,0.307736951629068,0.0654440622542699,0.0469026037768946,0
1189.78333333333,0.08,0.201125533290712,0.063116918631799,0.0469046893644005,0
1189.78611111111,0.035,0.0939702153999036,0.0605195980033265,0.0469067535262673,0
1189.78888888889,0.04,-0.00868337887338872,0.0577482204519676,0.0469087578010741,0
1189.79166666667,0.065,-0.102309182837513,0.0549286700929573,0.0469106215334123,0
1189.79444444444,0.04,-0.183146799424462,0.0522075871008328,0.0469122698866279,0
1189.79722222222,0.04,-0.248388187906774,0.0497414644081305,0.0469136362531111,0
1189.8,0.045,-0.296294484303065,0.0476847368822164,0.0469146773667659,0
1189.80277777778,0.06,-0.326237817320922,0.0461778240571876,0.0469154504369244,0
1189.80555555556,0.07,-0.33866848400526,0.0456961988173876,0.0469160035870721,0
1189.80833333333,0.065,-0.335013133189578,0.0457917441743719,0.0469163687032677,0
1189.81111111111,0.085,-0.317514281021393,0.0451011594121674,0.0469165595815803,0
1189.81388888889,0.08,-0.289025221042685,0.0436293489418853,0.0469165754617974,0
1189.81666666667,0.07,-0.25277694447524,0.0414265114919874,0.0469164213511028,0
1189.81944444444,0.055,-0.212134907177077,0.0385852992809121,0.046916119740962,0
1189.82222222222,0.045,-0.170363328816818,0.0352349277127165,0.0469159019428947,0
1189.825,0.06,-0.130413255005324,0.0315846281753545,0.0469160061974206,0
1189.82777777778,0.05,-0.09474802028425,0.0280735964012884,0.0469166155606469,0
1189.83055555556,0.04,-0.0652162661472595,0.0248684588104186,0.0469177343181595,0
1189.83333333333,0.02,-0.0429785995006536,0.0221054142272746,0.0469193518274652,0
1189.83611111111,0.015,-0.0284896612401091,0.0198843156154029,0.046921440890411,0
1189.83888888889,0.025,-0.021533154251941,0.0182654221364611,0.0469239556031207,0
1189.84166666667,0.02,-0.0213035744688045,0.0172688778265342,0.0469268312008782,0
1189.84444444444,0.005,-0.0265252696767484,0.0168767855234383,0.0469301228110837,0
1189.84722222222,0.005,-0.0355972239042503,0.0170375752212586,0.0469340044768874,0
1189.85,0.015,-0.0467507557536439,0.0174201328578374,0.046938583480455,0
1189.85277777778,0.045,-0.0582071660690248,0.0172228883543947,0.0469438995504003,0
1189.85555555556,0.065,-0.0683232277653489,0.0165320060554243,0.0469499622833446,0
1189.85833333333,0.055,-0.0757141549931955,0.0154563616811293,0.0469567592234004,0
1189.86111111111,0.06,-0.0793461329667997,0.0141186207928513,0.0469642525777193,0
1189.86388888889,0.055,-0.0785934012119411,0.0127106020700476,0.0469723767615632,0
1189.86666666667,0.025,-0.0732580047690506,0.011440954018888,0.0469810370343118,0
1189.86944444444,-0.01,-0.0635534006309837,0.0103703016322001,0.0469901094294082,0
1189.87222222222,-0.035,-0.0500558895780355,0.00953670478739066,0.0469994037029821,0
1189.875,-0.01,-0.0336301327353662,0.00895551245299078,0.047008620703613,0
1189.87777777778,0.01,-0.0153366551423637,0.00862089276011884,0.0470174523146671,0
1189.88055555556,0.005,0.00366985626604499,0.00850878700332182,0.0470256043234028,0
1189.88333333333,-0.01,0.022242512494122,0.00858094699214836,0.0470331065663138,0
1189.88611111111,-0.03,0.0393360804152494,0.00842954087470124,0.0470400864502555,0
1189.88888888889,-0.015,0.0540856026917162,0.00813647433425784,0.0470466903168892,0
1189.89166666667,0.01,0.0658643642600636,0.00781088790519735,0.0470530765153492,0
1189.89444444444,0.015,0.074317837568628,0.00749993609262541,0.0470594068149072,0
1189.89722222222,0.015,0.0793724272815193,0.00724258934909865,0.0470658313494493,0
1189.9,0.045,0.0812199788196218,0.00706716610132215,0.0470724720278544,0
1189.90277777778,0.06,0.0802809434206716,0.0069900161637264,0.0470792811617505,0
1189.90555555556,0.065,0.0771506630928068,0.00696466193184659,0.0470862060632202,0
1189.90833333333,0.065,0.0725343475856813,0.0068437576356634,0.0470932293605149,0
1189.91111111111,0.075,0.0671769019481641,0.00664359022609229,0.0471003787816144,0
1189.91388888889,0.09,0.0617938129991548,0.00638724119261386,0.0471075793160869,0
1189.91666666667,0.08,0.0570088458318967,0.00610163685256918,0.0471146577585797,0
1189.91944444444,0.075,0.053303405790842,0.0058144796776747,0.0471215066077294,0
1189.92222222222,0.08,0.0509811863317358,0.00555134538591605,0.0471280865014734,0
1189.925,0.11,0.0501502685297587,0.00533319931390029,0.0471342835532806,0
1189.92777777778,0.115,0.0507232930844022,0.00517453455307022,0.0471398997928402,0
1189.93055555556,0.125,0.0524348184910416,0.00508226861219352,0.0471447615567368,0
1189.93333333333,0.12,0.054873626241836,0.00505546106796533,0.047148721094117,0
1189.93611111111,0.12,0.0575266323758842,0.0050858383484158,0.0471566198207673,0
1189.93888888889,0.115,0.0598302854182121,0.0051590399322777,0.0471733225675818,0
1189.94166666667,0.15,0.0612249152015398,0.00525643870503374,0.0471995755217345,0
1189.94444444444,0.175,0.0612074561711958,0.00529258072991582,0.0472359594444197,0
1189.94722222222,0.185,0.0593782843176178,0.00520857224259454,0.0472828320586532,0
1189.95,0.165,0.0554785350571129,0.00515927393614576,0.0473402667690737,0
1189.95277777778,0.16,0.0494151459750394,0.00515791565302768,0.0474079935899377,0
1189.95555555556,0.18,0.0412719149936657,0.00521161144075986,0.047485347318165,0
1189.95833333333,0.195,0.0313059954726033,0.0053204405647941,0.0475712283113652,0
1189.96111111111,0.215,0.0199303785251952,0.00547722057172177,0.0476645625489043,0
1189.96388888889,0.23,0.00768395838557519,0.00566798975828232,0.0477638950853932,0
1189.96666666667,0.22,-0.00480833147147984,0.0058731524385655,0.0478673234627403,0
1189.96944444444,0.205,-0.0168821414625226,0.00602966262603454,0.0479659415224862,0
1189.97222222222,0.2,-0.0278834842482525,0.00607316925853071,0.0480544558678115,0
1189.975,0.21,-0.0372178986898805,0.00600717370804326,0.0481284090059708,0
1189.97777777778,0.245,-0.0443953343347669,0.00598635782568406,0.0481906010745484,0
1189.98055555556,0.255,-0.0490674502827945,0.006064013306405,0.048244939934382,0
1189.98333333333,0.255,-0.0510546044033251,0.00625054253151313,0.0482958087592115,0
1189.98611111111,0.25,-0.0503605702077777,0.0065472619607394,0.0483479297939211,0
1189.98888888889,0.24,-0.0471739055876668,0.00682452455719116,0.0484062073541825,0
1189.99166666667,0.27,-0.041855850160574,0.0070503045543856,0.0484755606787076,0
1189.99444444444,0.3,-0.0349155833673313,0.00719659484156369,0.0485599192098378,0
1189.99722222222,0.315,-0.0269745716030801,0.00724164629121558,0.0486619757901719,0
1190,0.31,-0.0187225113611231,0.00717170607337464,0.048783930053338,0
1190.00277777778,0.275,-0.0108679854917611,0.0069821283713026,0.0489213582338973,0
1190.00555555556,0.28,-0.00408734996157155,0.00667777428236657,0.0490685642874828,0
1190.00833333333,0.28,0.00102447002967415,0.00627266696232859,0.0492196885380382,0
1190.01111111111,0.305,0.00399768777870231,0.00592373696688003,0.0493689547015824,0
1190.01388888889,0.345,0.0045226245653607,0.00569893155007368,0.0495108972155576,0
1190.01666666667,0.34,0.00247327901972933,0.00560666926594434,0.0496405591894005,0
1190.01944444444,0.315,-0.00208238296350605,0.00564670447103444,0.049753650495735,0
1190.02222222222,0.335,-0.00888636027496929,0.00581037241562728,0.0498500457783136,0
1190.025,0.335,-0.0175086827528751,0.00608151108241441,0.049933051613902,0
1190.02777777778,0.325,-0.0273784699035542,0.00639011098846344,0.0500057469765243,0
1190.03055555556,0.33,-0.0378258390826979,0.00658597445577151,0.0500707745622896,0
1190.03333333333,0.33,-0.048131646492936,0.00666610111664524,0.0501301914820587,0
1190.03611111111,0.305,-0.0575813695142145,0.00663827582318358,0.050185392615544,0
1190.03888888889,0.29,-0.0655190227178896,0.00652082867990429,0.0502371122356555,0
1190.04166666667,0.295,-0.0713968863052085,0.00634150075290057,0.050283903284549,0
1190.04444444444,0.325,-0.0748170378656838,0.00613546434366242,0.0503267729834573,0
1190.04722222222,0.315,-0.0755612154416374,0.00594261730030499,0.0503675911978016,0
1190.05,0.245,-0.0736063753186027,0.00580433618361736,0.0504091046638454,0
1190.05277777778,0.22,-0.0691243896202571,0.00575992756627743,0.0504548633118277,0
1190.05555555556,0.22,-0.0624655814183799,0.00584305510718265,0.0505090614280674,0
1190.05833333333,0.26,-0.0541271248258806,0.00593710383498604,0.0505692666593754,0
1190.06111111111,0.305,-0.0447086384846606,0.00602359335999527,0.0506326008218854,0
1190.06388888889,0.3,-0.0348584630273032,0.00611974945475248,0.0506969678078585,0
1190.06666666667,0.245,-0.0252150315563341,0.00624016649752928,0.0507595345759117,0
1190.06944444444,0.21,-0.016348326384289,0.00639493765203324,0.0508168326590142,0
1190.07222222222,0.22,-0.00870659779185801,0.00658824020685967,0.050863917433273,0
1190.075,0.255,-0.00257326450900359,0.00681752678574122,0.0508963324912286,0
1190.07777777778,0.305,0.00196178010014812,0.00707341889341955,0.0509105360881034,0
1190.08055555556,0.3,0.00501333045899725,0.00734033450082405,0.0509040499823954,0
1190.08333333333,0.285,0.00689280046045291,0.00759781165086884,0.0508815009860349,0
1190.08611111111,0.255,0.00808087173327711,0.00782242155697757,0.0508491311004644,0
1190.08888888889,0.245,0.00918253934058139,0.0079901036461329,0.0508135153216846,0
1190.09166666667,0.24,0.0108679071867518,0.00794389073786642,0.0507811239188714,0
1190.09444444444,0.27,0.0138035426596616,0.00795210252345498,0.0507574297306146,0
1190.09722222222,0.305,0.0185803013115912,0.00806824021184886,0.0507451334113583,0
1190.1,0.3,0.0256441595200943,0.00829510291465417,0.0507459078271892,0
1190.10277777778,0.305,0.0352366635795167,0.00862622079136844,0.0507570131284886,0
1190.10555555556,0.31,0.0473510802979496,0.0090457651035477,0.0507721676140559,0
1190.10833333333,0.33,0.0617092309292435,0.00952939153334715,0.0507845799799823,0
1190.11111111111,0.365,0.0777623741983536,0.0100459973995215,0.0507913399058853,0
1190.11388888889,0.385,0.0947174923961567,0.010560285419483,0.0507991206411862,0
1190.11666666667,0.38,0.111588086540107,0.011035943438765,0.0508081877178501,0
1190.11944444444,0.38,0.127266292358512,0.0114391788060401,0.050818690532358,0
1190.12222222222,0.385,0.14061099329713,0.0117422948310562,0.0508299196908901,0
1190.125,0.425,0.150544832134759,0.0119269706931478,0.0508411882726328,0
1190.12777777778,0.49,0.156151790296217,0.0119869090338122,0.0508520470729312,0
1190.13055555556,0.515,0.156766456079523,0.0119682922796584,0.0508623550762227,0
1190.13333333333,0.52,0.152046328599109,0.0120050060206691,0.0508720681336167,0
1190.13611111111,0.525,0.14201952743381,0.0120158818912936,0.0508812317836374,0
1190.13888888889,0.545,0.127102052459957,0.0119136479490264,0.0508899666056313,0
1190.14166666667,0.59,0.108081147694023,0.011726977448839,0.0508984611859695,0
1190.14444444444,0.61,0.0860641871834669,0.0116385348533433,0.0509069122595963,0
1190.14722222222,0.63,0.0623955892483136,0.0117039768928181,0.0509154400647532,0
1190.15,0.615,0.0385473139572133,0.0119711694484515,0.0509241077165728,0
1190.15277777778,0.6,0.0159912327858991,0.0124745142751206,0.0509327535128543,0
1190.15555555556,0.61,-0.00393618305613591,0.0132298477396386,0.0509412861104008,0
1190.15833333333,0.645,-0.0201650533162631,0.0142304016617658,0.0509497425545857,0
1190.16111111111,0.675,-0.0320069684005813,0.015444266610243,0.050958223499421,0
1190.16388888889,0.67,-0.0392420384026923,0.016813708438139,0.0509668375379688,0
1190.16666666667,0.62,-0.0421683215547832,0.0182565643555337,0.0509756870902649,0
1190.16944444444,0.605,-0.0416065398179385,0.019669793464911,0.0509848584350641,0
1190.17222222222,0.605,-0.0388564734824572,0.0209350890721229,0.0509944127172049,0
1190.175,0.645,-0.0356054377614376,0.0216007627230805,0.051004300514139,0
1190.17777777778,0.675,-0.0337934634352555,0.0215011270490862,0.0510141247725334,0
1190.18055555556,0.655,-0.0354438771383219,0.0214233100118611,0.0510235349141915,0
1190.18333333333,0.62,-0.0424715459283696,0.0219540143535045,0.0510324008576598,0
1190.18611111111,0.615,-0.0564837817915722,0.0231583142960992,0.0510406364109615,0
1190.18888888889,0.63,-0.0785905165362342,0.0250640533957477,0.0510483452832341,0
1190.19166666667,0.64,-0.10924065977875,0.0276560035605623,0.0510558759841977,0
1190.19444444444,0.66,-0.148100448447573,0.0308725924268109,0.0510633293315084,0
1190.19722222222,0.66,-0.193987106333213,0.0346056201389412,0.0510707882659579,0
1190.2,0.635,-0.244867395657458,0.0387031927161289,0.0510783108986732,0
1190.20277777778,0.635,-0.29792590960506,0.0429758782283381,0.0510859263800487,0
1190.20555555556,0.635,-0.349702570047135,0.0472058593577305,0.0510936338677944,0
1190.20833333333,0.64,-0.396293172380534,0.0511586285110712,0.0511012515336664,0
1190.21111111111,0.65,-0.433601410772985,0.0545578230969352,0.0511085156033074,0
1190.21388888889,0.64,-0.45762607413117,0.0570651773959401,0.0511153508106512,0
1190.21666666667,0.625,-0.464763440750636,0.0585972473723031,0.0511217204734626,0
1190.21944444444,0.64,-0.45210265985631,0.0591281854846098,0.0511276297067076,0
1190.22222222222,0.655,-0.41769132918272,0.0595662733004042,0.0511330413544049,0
1190.225,0.69,-0.360749670336917,0.0608872408004093,0.0511379819086235,0
1190.22777777778,0.74,-0.281814638511958,0.0629587828388614,0.0511424916194308,0
1190.23055555556,0.77,-0.182799808441234,0.0656136616892024,0.0511465858403155,0
1190.23333333333,0.765,-0.0669626501487088,0.0686633807868513,0.0511502537364429,0
1190.23611111111,0.845,0.0612225693451052,0.0719132049674789,0.0511534591777764,0
1190.23888888889,0.95,0.196281044343675,0.0751773115011966,0.0511561219300214,0
1190.24166666667,1.125,0.332030839282059,0.0782928408308417,0.0511582524629445,0
1190.24444444444,1.36,0.461935362036551,0.0811317024104215,0.0511600019387702,0
1190.24722222222,1.615,0.579491950635521,0.0836091733490431,0.0511614050534364,0
1190.25,1.905,0.678630375362423,0.0856885914740139,0.0511624940490285,0
1190.25277777778,2.16,0.754093716369046,0.0873817686480263,0.0511632988708519,0
1190.25555555556,2.38,0.801774781404592,0.0887451080799325,0.0511638446261428,0
1190.25833333333,2.54,0.818983960987667,0.0898717711849723,0.0511641487414899,1
1190.26111111111,2.58,0.804629000626564,0.0900074175597091,0.0511641675472007,0
1190.26388888889,2.44,0.759293274336367,0.0889854120295512,0.051163658136999,0
1190.26666666667,2.11,0.685206319358053,0.087821456016785,0.0511623878985058,0
1190.26944444444,1.705,0.586108097953502,0.086403549467728,0.0511601605532238,0
1190.27222222222,1.295,0.467016100879169,0.0846494903955957,0.0511569216029605,0
1190.275,1.02,0.333911410972143,0.0825173812028675,0.0511528677082894,0
1190.27777777778,0.9,0.193365663608691,0.0800126422150945,0.0511480844950423,0
1190.28055555556,0.83,0.0521350237247369,0.0771908716127888,0.0511426566061481,0
1190.28333333333,0.755,-0.0832504760306787,0.0741562376087638,0.0511366644209964,0
1190.28611111111,0.695,-0.206873793692778,0.0710554643420576,0.0511301856091475,0
1190.28888888889,0.675,-0.313767521650331,0.0680678460398251,0.0511232924256133,0
1190.29166666667,0.68,-0.400177898089141,0.0653920630825029,0.0511159298302375,0
1190.29444444444,0.685,-0.463739404972606,0.0632308499750293,0.0511079959647675,0
1190.29722222222,0.645,-0.503550001638226,0.0617747553478582,0.0510995025756143,0
1190.3,0.605,-0.520144527399918,0.0611863216679975,0.0510904918163251,0
1190.30277777778,0.59,-0.515371357100906,0.0607866536986528,0.0510811101288875,0
1190.30555555556,0.59,-0.492184422625323,0.0593317424394585,0.05107140871289,0
1190.30833333333,0.59,-0.454368680723016,0.0568150999169729,0.051061373610636,0
1190.31111111111,0.58,-0.406221563744129,0.0535020723250714,0.0510509919575914,0
1190.31388888889,0.585,-0.352215572040724,0.0496961616876034,0.0510402512980599,0
1190.31666666667,0.555,-0.296667783192325,0.0456360376607595,0.0510291377726725,0
1190.31944444444,0.52,-0.243440655660621,0.0415566558372395,0.0510179519714845,0
1190.32222222222,0.515,-0.195695246838962,0.0376752838247385,0.05100696275919,0
1190.325,0.51,-0.15571314881895,0.0341794648205527,0.0509963659804562,0
1190.32777777778,0.51,-0.124797490984724,0.0312176184175923,0.0509865120050388,0
1190.33055555556,0.51,-0.103256772020166,0.0288927658951066,0.0509776412565006,0
1190.33333333333,0.465,-0.0904686111302738,0.027259628954871,0.050969802133202,0
1190.33611111111,0.47,-0.0850142902826921,0.0263251049438224,0.0509630148754236,0
1190.33888888889,0.49,-0.0848696874155763,0.0260518862048725,0.05095726789946,0
1190.34166666667,0.49,-0.0876342766656852,0.0263647830625659,0.0509525166046108,0
1190.34444444444,0.53,-0.0907775764392462,0.0268299590374327,0.0509486847145716,0
1190.34722222222,0.525,-0.0918818982654774,0.0263823621937816,0.050945668117223,0
1190.35,0.51,-0.0888614770260679,0.025149422729802,0.0509433441135494,0
1190.35277777778,0.49,-0.0801408884383091,0.023683512181832,0.0509415542932931,0
1190.35555555556,0.49,-0.0647797953097573,0.0222491666545777,0.0509402450322054,0
1190.35833333333,0.505,-0.0425361208283853,0.0209507714198408,0.050939555726779,0
1190.36111111111,0.51,-0.0138652693069593,0.019868819519382,0.0509396096798513,0
1190.36388888889,0.54,0.0201414793270694,0.0190563148317542,0.0509405086445658,0
1190.36666666667,0.52,0.0578712513033174,0.0185375223323095,0.0509423241199747,0
1190.36944444444,0.53,0.0973442561087835,0.0183089829660696,0.0509450944040889,0
1190.37222222222,0.525,0.136393661280763,0.018342545621085,0.0509488270399276,0
1190.375,0.53,0.172853971843818,0.018590032618377,0.050953397456129,0
1190.37777777778,0.54,0.204741225079892,0.0189890568483311,0.05095857104221,0
1190.38055555556,0.555,0.230409759714692,0.0194694536993428,0.0509641133769686,0
1190.38333333333,0.53,0.248673033284842,0.0197691197432126,0.0509698214308526,0
1190.38611111111,0.525,0.258879659294541,0.0199859335838793,0.0509757785786559,0
1190.38888888889,0.53,0.260940156741441,0.0202299129019685,0.0509821792604364,0
1190.39166666667,0.55,0.255304445653685,0.0203937656431926,0.0509890739005275,0
1190.39444444444,0.555,0.242894474240653,0.0203748815282511,0.050996276117195,0
1190.39722222222,0.555,0.225000147199624,0.0201641583201155,0.0510036783468094,0
1190.4,0.54,0.203149624781228,0.0197693181793984,0.0510109469958777,0
1190.40277777778,0.525,0.178966851900774,0.0192130555163722,0.0510177960497162,0
1190.40555555556,0.525,0.154029736364658,0.0185301123221988,0.0510240171947122,0
1190.40833333333,0.53,0.129741720151389,0.017763605699746,0.051029490764535,0
1190.41111111111,0.505,0.107227684191383,0.0169609694854867,0.0510343005973074,0
1190.41388888889,0.48,0.0872624003800236,0.0161698765227816,0.0510387722480835,0
1190.41666666667,0.445,0.0702363768637746,0.0154344820166687,0.0510432622474093,0
1190.41944444444,0.425,0.0561602653173199,0.0147922756452477,0.0510481139281665,0
1190.42222222222,0.41,0.0447053607949867,0.0142717568805023,0.0510536112394403,0
1190.425,0.41,0.0352744596420909,0.0138910617931139,0.0510599382507227,0
1190.42777777778,0.395,0.0270947375912707,0.0136575786339402,0.0510671448312306,0
1190.43055555556,0.395,0.0193225868563641,0.0136045522321527,0.0510751230745848,0
1190.43333333333,0.37,0.0111496376019079,0.013560857663048,0.0510835974972909,0
1190.43611111111,0.34,0.00189951750928962,0.0134028685548241,0.0510911108362482,0
1190.43888888889,0.33,-0.00889379289128698,0.0131535225248964,0.0510988466824566,0
1190.44166666667,0.365,-0.0214330271849548,0.0128376879720462,0.0511052940789062,0
1190.44444444444,0.405,-0.0356344231879523,0.0124797256199018,0.0511085851780412,0
1190.44722222222,0.435,-0.0511355031130691,0.0121013553392401,0.0511066068258408,0
1190.45,0.445,-0.067332057705018,0.0117199986517614,0.0510971463094759,0
1190.45277777778,0.445,-0.083439766958549,0.0113477117494755,0.0510780565244499,0
1190.45555555556,0.435,-0.0985736368443284,0.0109907618316148,0.0510474391161415,0
1190.45833333333,0.42,-0.111836905309193,0.0106498369875048,0.0510038292184005,0
1190.46111111111,0.425,-0.122410395766379,0.0103208223397334,0.0509463664272893,0
1190.46388888889,0.45,-0.129633511802263,0.0099960275088216,0.0508749364459722,0
1190.46666666667,0.45,-0.133069126195925,0.00967593174945843,0.050790269338045,0
1190.46944444444,0.455,-0.132546394400863,0.0094577583193483,0.0506940495613507,0
1190.47222222222,0.47,-0.128177825817143,0.00929219746558769,0.0505891497853119,0
1190.475,0.5,-0.120349538542604,0.00912968439456798,0.0504805899043455,0
1190.47777777778,0.545,-0.109686246369478,0.00892595606762198,0.0503742929890229,0
1190.48055555556,0.565,-0.0969949259837375,0.00864675313614866,0.0502748576973308,0
1190.48333333333,0.58,-0.0831930613154703,0.00827123322464879,0.0501814305010254,0
1190.48611111111,0.555,-0.0692286839185436,0.00779380439878519,0.0500935798585581,0
1190.48888888889,0.565,-0.0560000116421594,0.00729431446092403,0.0500112273286151,0
1190.49166666667,0.585,-0.0442822958484446,0.00681534041131554,0.049934523307608,0
1190.49444444444,0.615,-0.0346685596550441,0.00637644519307589,0.0498636815282483,0
1190.49722222222,0.65,-0.0275293566179856,0.00599730591724224,0.0497987879670872,0
1190.5,0.665,-0.0229946698569014,0.00569627956457387,0.0497396040807227,0
1190.50277777778,0.665,-0.0209588154310101,0.00548907463736661,0.049685382232238,0
1190.50555555556,0.67,-0.021106939562374,0.00538763298590031,0.0496347186252827,0
1190.50833333333,0.7,-0.0229596321400005,0.00539930288109961,0.0495854559536524,0
1190.51111111111,0.72,-0.0259305181158494,0.00549030551291464,0.0495346524737743,0
1190.51388888889,0.705,-0.0293905883107341,0.0054285389592031,0.0494796353774659,0
1190.51666666667,0.685,-0.0327325869219181,0.00523275572153189,0.0494243034545961,0
1190.51944444444,0.66,-0.0354290123097686,0.00493377025683644,0.0493742291940752,0
1190.52222222222,0.655,-0.0370781691699402,0.00457139825531422,0.0493355436684481,0
1190.525,0.65,-0.0374341292228932,0.00419052158931379,0.0493102077908539,0
1190.52777777778,0.64,-0.03641825749575,0.00383669448959137,0.0492997726727969,0
1190.53055555556,0.645,-0.0341119503424472,0.00355174551763396,0.0493053522712378,0
1190.53333333333,0.64,-0.0307322024178662,0.00336982202204722,0.0493276193401501,0
1190.53611111111,0.635,-0.0265933715312626,0.00331427055088197,0.0493668231582314,0
1190.53888888889,0.63,-0.0220598672937801,0.00339565423413852,0.0494228259050995,0
1190.54166666667,0.62,-0.017495319725605,0.00361108641514616,0.0494951532883634,0
1190.54444444444,0.64,-0.0132140115822439,0.00394492158524067,0.0495830552004817,0
1190.54722222222,0.645,-0.00943997022780243,0.00436048880586467,0.0496855689080613,0
1190.55,0.61,-0.00627816211010414,0.0047161608583259,0.0498015797480126,0
1190.55277777778,0.585,-0.00370082358401934,0.00501393928041027,0.0499275573878787,0
1190.55555555556,0.575,-0.00155025020194594,0.00525859412973162,0.0500558592530985,0
1190.55833333333,0.6,0.00044246349501207,0.005457080830497,0.0501802716962733,0
1190.56111111111,0.595,0.00262499583660873,0.00561786933590397,0.0502962169981263,0
1190.56388888889,0.58,0.00538143719086334,0.0057502244372203,0.0504049987910736,0
1190.56666666667,0.575,0.0090848286958399,0.00586347428128227,0.0505079259206788,0
1190.56944444444,0.56,0.0140499807854593,0.00589624131275682,0.0506063254594919,0
1190.57222222222,0.565,0.0204919152071587,0.00583697188467834,0.0507015591861237,0
1190.575,0.575,0.0284946587367668,0.00573471903074194,0.0507950377177035,0
1190.57777777778,0.605,0.0379939885882651,0.00562683315544265,0.0508880005227964,0
1190.58055555556,0.6,0.048776208598571,0.00551282753952225,0.0509805755973308,0
1190.58333333333,0.58,0.0604932829572032,0.00539508711482848,0.0510730112411602,0
1190.58611111111,0.585,0.0726928564866629,0.00527889962782951,0.0511576531151925,0
1190.58888888889,0.585,0.0848600385856652,0.00517231690315831,0.0512336494618496,0
1190.59166666667,0.6,0.0964664988019607,0.00508584352951332,0.0513060760357821,0
1190.59444444444,0.615,0.107021559627165,0.00503195812998536,0.05137884552725,0
1190.59722222222,0.62,0.116119672560545,0.00502448149525559,0.0514482683058022,0
1190.6,0.595,0.123478964605197,0.00507781582705238,0.0515107430037367,0
1190.60277777778,0.595,0.128966419403543,0.00520608946344533,0.0515627799105481,0
1190.60555555556,0.62,0.132606624934293,0.00542225081797035,0.0516008577309431,0
1190.60833333333,0.635,0.134572740574198,0.00573716281161816,0.0516231365694418,0
1190.61111111111,0.665,0.135160234313225,0.00615875375178302,0.0516291764181572,0
1190.61388888889,0.69,0.134745819152799,0.00669128148620184,0.0516286126468897,0
1190.61666666667,0.69,0.133735678649875,0.00733476407164821,0.0516292712060381,0
1190.61944444444,0.665,0.132508337274084,0.00808462187476933,0.0516309410218584,0
1190.62222222222,0.695,0.131358262022029,0.00893156316980674,0.051633390561055,0
1190.625,0.695,0.130446391001638,0.00986172863284953,0.0516363792106233,0
1190.62777777778,0.73,0.129763248662661,0.0108570908673102,0.0516396678998945,0
1190.63055555556,0.76,0.129109168380667,0.0118960848581544,0.0516430295051688,0
1190.63333333333,0.765,0.128094506440893,0.0129544259496537,0.0516462575834579,0
1190.63611111111,0.765,0.126160755465983,0.0140060555766592,0.0516492548162536,0
1190.63888888889,0.76,0.122621346146918,0.0150241434423686,0.0516522350999485,0
1190.64166666667,0.78,0.116718878349926,0.0159820696837524,0.0516553952641366,0
1190.64444444444,0.815,0.107693757714446,0.0168543128222851,0.0516589235303705,0
1190.64722222222,0.85,0.094857918393683,0.0176171792889524,0.0516629495880139,0
1190.65,0.865,0.0776666290392827,0.0182493275680056,0.0516674869012776,0
1190.65277777778,0.875,0.0557813903194373,0.0187320632322488,0.0516724950001223,0
1190.65555555556,0.9,0.0291176518118846,0.0190208279388355,0.0516779125938097,0
1190.65833333333,0.92,-0.00212755433012636,0.0190897315021292,0.0516836266297856,0
1190.66111111111,0.915,-0.037471071896517,0.0191409936347822,0.0516894130638018,0
1190.66388888889,0.885,-0.0761629446833902,0.0193911230857968,0.051695071941276,0
1190.66666666667,0.85,-0.117228023012209,0.0198474153481377,0.0517004858531666,0
1190.66944444444,0.835,-0.159526030845693,0.0205155635241235,0.0517057226048789,0
1190.67222222222,0.835,-0.201824382715468,0.0213995700899079,0.0517108351370531,0
1190.675,0.825,-0.242876702723833,0.0225013613768116,0.0517158585116884,0
1190.67777777778,0.835,-0.281499363762785,0.0238200657614166,0.0517208074723606,0
1190.68055555556,0.815,-0.316638516807569,0.0253509568781831,0.0517256756719955,0
1190.68333333333,0.785,-0.347421022623361,0.0270841094008905,0.0517304368765788,0
1190.68611111111,0.77,-0.373184355687464,0.0290028628848796,0.0517350473170786,0
1190.68888888889,0.775,-0.393482771419911,0.0310822340044648,0.0517395972881272,0
1190.69166666667,0.785,-0.40806959942199,0.0332874542428971,0.0517442108843907,0
1190.69444444444,0.81,-0.416858191073432,0.0355728339535792,0.0517489605975931,0
1190.69722222222,0.84,-0.419866534911871,0.0378811607283671,0.0517538398152016,0
1190.7,0.875,-0.417152591689142,0.0401438274115755,0.0517587787719692,0
1190.70277777778,0.93,-0.408748762357663,0.0422818517026695,0.0517638011380187,0
1190.70555555556,0.99,-0.394604415729384,0.0442078957520716,0.0517689193580161,0
1190.70833333333,1.06,-0.374544976286822,0.0458293230693758,0.051774132233184,0
1190.71111111111,1.125,-0.348254705597079,0.0470522458973461,0.0517794232277089,0
1190.71388888889,1.195,-0.315288096337097,0.047786425044756,0.0517847632288825,0
1190.71666666667,1.27,-0.275111918208644,0.0479507933075862,0.0517901118150967,0
1190.71944444444,1.325,-0.227176666503351,0.0474792909820386,0.0517954187503685,0
1190.72222222222,1.385,-0.171012775547842,0.0463266355206638,0.0518005976529471,0
1190.725,1.455,-0.10634380387668,0.0460567352681451,0.0518055301736455,0
1190.72777777778,1.54,-0.0332062020879438,0.0468221620399963,0.0518101197092807,0
1190.73055555556,1.62,0.0479364741809923,0.0486090131265345,0.0518144451056129,0
1190.73333333333,1.7,0.136097724510619,0.0513548861710048,0.0518186103347405,0
1190.73611111111,1.77,0.229702939487019,0.0549522208759075,0.0518226863086345,0
1190.73888888889,1.86,0.326565479442074,0.0592548998151955,0.0518267236644725,0
1190.74166666667,1.92,0.42391170145019,0.0639004748661103,0.0518306589425649,0
1190.74444444444,2.015,0.518458851669727,0.0684907463416422,0.051834391169914,0
1190.74722222222,2.13,0.606545322200365,0.0728242442322149,0.0518378178026938,0
1190.75,2.245,0.684308092044989,0.0766987771578457,0.0518408476197629,0
1190.75277777778,2.325,0.747897639189651,0.0799222241650533,0.0518433755636728,0
1190.75555555556,2.4,0.793716638820092,0.0823234600840253,0.0518452950416141,0
1190.75833333333,2.47,0.818665732418164,0.0837627272952512,0.0518465059061515,0
1190.76111111111,2.515,0.820377877083077,0.0841407633076787,0.0518469221303723,1
1190.76388888889,2.54,0.797422478590326,0.083406039210486,0.0518465792677332,0
1190.76666666667,2.555,0.749461769142537,0.0815595578652367,0.05184556269708,0
1190.76944444444,2.55,0.677344671900485,0.0794183452434869,0.0518439419347792,0
1190.77222222222,2.48,0.583127525608767,0.0776725341309977,0.0518418252625989,0
1190.775,2.26,0.470016227515145,0.0762323239133439,0.0518393414712556,0
1190.77777777778,1.945,0.342230194437355,0.0750067118092005,0.0518365978500052,0
1190.78055555556,1.565,0.204794574738098,0.0739150273927218,0.0518336397603252,0
1190.78333333333,1.21,0.0632728726161912,0.0728971572065318,0.0518303917917301,0
1190.78611111111,0.935,-0.0765429128386926,0.0719214905883184,0.0518267683457424,0
1190.78888888889,0.77,-0.20896380712455,0.0709898167776916,0.0518226839454145,0
1190.79166666667,0.68,-0.328734041023313,0.0701386738784273,0.0518180638204322,0
1190.79444444444,0.595,-0.431336491933483,0.0694369690392422,0.0518128554562113,0
1190.79722222222,0.51,-0.513251419187489,0.0689800283864142,0.0518070335171228,0
1190.8,0.46,-0.572149715253178,0.0688805647286856,0.0518006040412791,0
1190.80277777778,0.435,-0.6070066073901,0.0692573412934391,0.0517936053635627,0
1190.80555555556,0.435,-0.618127620049031,0.0686394033986266,0.0517861055356542,0
1190.80833333333,0.45,-0.607085184291039,0.0669930022698678,0.0517781968004161,0
1190.81111111111,0.44,-0.57657103028429,0.0646037649358607,0.0517698976605822,0
1190.81388888889,0.41,-0.530175876266622,0.0614508743309288,0.0517612401737975,0
1190.81666666667,0.375,-0.472113412310382,0.0575608944292395,0.0517522909119608,0
1190.81944444444,0.355,-0.40690972043321,0.0532983896891168,0.0517431298827381,0
1190.82222222222,0.345,-0.339081733824602,0.0489051646692211,0.0517338459989955,0
1190.825,0.34,-0.272828915533255,0.0445960135773772,0.0517245314430901,0
1190.82777777778,0.35,-0.211760985510793,0.0405675074446617,0.0517152477768902,0
1190.83055555556,0.35,-0.158681359744835,0.0369876119824088,0.0517060485088212,0
1190.83333333333,0.315,-0.11544125293654,0.0339875788741831,0.051696980108896,0
1190.83611111111,0.29,-0.0828735322381115,0.0316565592088509,0.0516880679414961,0
1190.83888888889,0.285,-0.060808884714169,0.0300391849291489,0.051679309048193,0
1190.84166666667,0.305,-0.0481702196714047,0.0291361487401069,0.0516706678805285,0
1190.84444444444,0.305,-0.0431350201282159,0.0289076011941104,0.0516619747531651,0
1190.84722222222,0.29,-0.0433500968419985,0.0292789913998515,0.0516532472680761,0
1190.85,0.27,-0.046179311397847,0.0293872716788517,0.0516445563827319,0
1190.85277777778,0.27,-0.0489626301465399,0.0285316788772699,0.0516359660804753,0
1190.85555555556,0.27,-0.0492645110911698,0.0270316372155497,0.051627535404088,0
1190.85833333333,0.285,-0.0450911154769374,0.025407128003358,0.0516193193412062,0
1190.86111111111,0.29,-0.0350590213546558,0.02377525892492,0.0516113609312738,0
1190.86388888889,0.28,-0.018502700896221,0.0222363212013348,0.0516036830103042,0
1190.86666666667,0.265,0.00448640670991195,0.0208684469079625,0.0515962858162123,0
1190.86944444444,0.235,0.0330903325904355,0.0197243792937799,0.0515891470103247,0
1190.87222222222,0.225,0.0658596063506538,0.0188304529902911,0.0515822242272482,0
1190.875,0.215,0.100862486966189,0.0181877044765968,0.0515754551789398,0
1190.87777777778,0.215,0.135873560108838,0.0177748712914146,0.051568765420393,0
1190.88055555556,0.215,0.168583806692307,0.0175529036377049,0.0515620788306418,0
1190.88333333333,0.185,0.196812819995333,0.0174705139912917,0.0515553577702597,0
1190.88611111111,0.17,0.218704148620754,0.0174702355416113,0.0515486686528905,0
1190.88888888889,0.16,0.232886712469753,0.0174796185444889,0.0515420275425133,0
1190.89166666667,0.16,0.238588675230629,0.0174831774748233,0.0515353934522861,0
1190.89444444444,0.175,0.235694729402847,0.0175568929341458,0.0515287496669349,0
1190.89722222222,0.16,0.224743032600167,0.0177299969609786,0.051522212958683,0
1190.9,0.125,0.206863543997696,0.0177289574396858,0.051515934615725,0
1190.90277777778,0.11,0.183664751373058,0.0174366178701677,0.0515100711400235,0
1190.90555555556,0.095,0.157080287589507,0.0169393214032355,0.0515047748876076,0
1190.90833333333,0.105,0.129190318378342,0.016370890347806,0.0515002651257917,0
1190.91111111111,0.1,0.102034555413559,0.0157662760543636,0.0514967758410734,0
1190.91388888889,0.085,0.0774341555023977,0.0151648465057249,0.0514944476721114,0
1190.91666666667,0.06,0.0568385971742535,0.0146063121210437,0.0514933602990477,0
1190.91944444444,0.03,0.041211011607891,0.014126867705373,0.0514935223809409,0
1190.92222222222,0.025,0.0309616463111118,0.0137558973067047,0.0514948657958586,0
1190.925,0.035,0.0259345218086525,0.0135135176720998,0.0514972448141178,0
1190.92777777778,0.07,0.0254473380114191,0.0134091432782421,0.0515001988626144,0
1190.93055555556,0.07,0.0283797615469646,0.0134411508846513,0.0515031712503007,0
1190.93333333333,0.03,0.0333008286160085,0.0135976143239118,0.0515062255146771,0
1190.93611111111,0.005,0.0386227263387898,0.0136583982685569,0.0515099047034805,0
1190.93888888889,0.01,0.0427659758355305,0.0133209024267053,0.0515148438993563,0
1190.94166666667,0.035,0.0443202224417876,0.0129364065987387,0.0515217392872221,0
1190.94444444444,0.06,0.0421854995243863,0.0125353744702631,0.0515208048069897,0
1190.94722222222,0.045,0.0356808925257092,0.0121457283899361,0.0515059003279901,0
1190.95,0.02,0.0246107811550148,0.0117903946539146,0.051474579667514,0
1190.95277777778,0.015,0.00928296430531922,0.0114854910476214,0.0514250639674512,0
1190.95555555556,0.015,-0.0095224191544619,0.01123930529919,0.0513564186350421,0
1190.95833333333,0.025,-0.0306296042426611,0.0110521286755309,0.0512686902310292,0
1190.96111111111,0.04,-0.0525817092647504,0.010916921359694,0.0511629921406297,0
1190.96388888889,0.05,-0.0737817131642335,0.0108207040627704,0.0510417003332877,0
1190.96666666667,0.03,-0.0926461843677795,0.0107465013646841,0.0509087330354434,0
1190.96944444444,0.03,-0.107756968802648,0.0107837909621044,0.0507684159679572,0
1190.97222222222,0.06,-0.117996371302077,0.0108694410050064,0.0506252282401096,0
1190.975,0.08,-0.122653051524566,0.0109851250983321,0.0504796480016596,0
1190.97777777778,0.105,-0.121488734135581,0.011141528632373,0.0503278465073724,0
1190.98055555556,0.125,-0.114759624544142,0.0113435378310781,0.0501666040568043,0
1190.98333333333,0.115,-0.103190763645296,0.0115897123252422,0.0499934751924963,0
1190.98611111111,0.12,-0.0879060361912297,0.0117252590433771,0.0498068676024308,0
1190.98888888889,0.135,-0.070320745324687,0.0115832100108342,0.0496059867288351,0
1190.99166666667,0.165,-0.0520071869424081,0.011269497052194,0.0493906441971408,0
1190.99444444444,0.195,-0.0345461737357565,0.0109671409011731,0.0491614985490519,0
1190.99722222222,0.21,-0.019378737493726,0.0106945123328065,0.0489198522315225,0
1191,0.215,-0.00767216408663487,0.0104677795492312,0.0486674496708453,0
1191.00277777778,0.235,-0.000213100400639668,0.0102991061506537,0.0484060023966968,0
1191.00555555556,0.265,0.00266214585731901,0.0101952891685369,0.0481371113158128,0
1191.00833333333,0.305,0.00109356373489698,0.0101569834499038,0.0478620961473687,0
1191.01111111111,0.36,-0.00432271104480495,0.0101785961181883,0.0475818459839472,0
1191.01388888889,0.41,-0.0125986168202944,0.0102488638158081,0.0473006000100536,0
1191.01666666667,0.43,-0.0224562170302621,0.0103520532173273,0.0470233532003199,0
1191.01944444444,0.435,-0.0324577332894518,0.010389361499925,0.0467506224077643,0
1191.02222222222,0.445,-0.0411510402264675,0.0102765984380935,0.0464834783734517,0
1191.025,0.465,-0.0472166179697796,0.010186569806617,0.0462237406649824,0
1191.02777777778,0.485,-0.0496018030247135,0.0101337971810024,0.0459735539235423,0
1191.03055555556,0.505,-0.0476293674545857,0.0101277673693175,0.0457349966009547,0
1191.03333333333,0.485,-0.0410698789844962,0.0101717873747361,0.0455091825861797,0
1191.03611111111,0.485,-0.0301707240073472,0.0102624900220994,0.0452966823046336,0
1191.03888888889,0.48,-0.0156387896428301,0.0103900547660585,0.0450973499527435,0
1191.04166666667,0.48,0.00142178682051205,0.0105391343623513,0.0449102020277169,0
1191.04444444444,0.49,0.0196110982386062,0.0106904041133095,0.0447394747558475,0
1191.04722222222,0.5,0.0373647036017941,0.0108225837861515,0.0445908375844615,0
1191.05,0.47,0.0531022554169106,0.0108065518146038,0.044463638886942,0
1191.05277777778,0.465,0.0653794211473152,0.0107727183872674,0.0443559586314302,0
1191.05555555556,0.465,0.0730285940138603,0.0108106937425145,0.0442681550085361,0
1191.05833333333,0.475,0.0752748515981783,0.0109275103561357,0.0442052182961638,0
1191.06111111111,0.49,0.0718158707998537,0.0111226844865636,0.044171159471119,0
1191.06388888889,0.48,0.0628578402138244,0.0113879224528514,0.0441677482784773,0
1191.06666666667,0.455,0.0491035189025808,0.0117076427119422,0.044194354887814,0
1191.06944444444,0.435,0.0316930925749025,0.0120602890882993,0.0442482470270516,0
1191.07222222222,0.43,0.0121029540354829,0.0122842991463494,0.0443238709191231,0
1191.075,0.435,-0.00798843594470372,0.0121723504549962,0.0444172868569022,0
1191.07777777778,0.435,-0.0268552497615492,0.0118772318962373,0.0445323649438654,0
1191.08055555556,0.44,-0.0428851314611308,0.0116490497215605,0.0446723617740027,0
1191.08333333333,0.415,-0.054731017924914,0.0115028633977433,0.0448383356279647,0
1191.08611111111,0.385,-0.0614394746952905,0.0114452235911562,0.0450300075083769,0
1191.08888888889,0.39,-0.06254312964283,0.01147299490774,0.0452460056502515,0
1191.09166666667,0.42,-0.0581080242558829,0.0115730966008486,0.0454840668086414,0
1191.09444444444,0.435,-0.0487308331782275,0.011723229130283,0.0457412866196497,0
1191.09722222222,0.41,-0.035485551173245,0.0118935608936832,0.0460158639532261,0
1191.1,0.385,-0.0198239851316468,0.0120492552668777,0.0463101107837501,0
1191.10277777778,0.38,-0.00343877717228524,0.0119448782268723,0.0466224162316477,0
1191.10555555556,0.38,0.0118986880846591,0.0119268199904718,0.0469469734337084,0
1191.10833333333,0.39,0.0245106180539489,0.0120248412553134,0.0472816755734416,0
1191.11111111111,0.39,0.0329793453075292,0.0122601948179006,0.0476239267138991,0
1191.11388888889,0.4,0.0362923217283755,0.0126429741187092,0.0479668994856852,0
1191.11666666667,0.375,0.0339516049552333,0.0131703520176043,0.0483036536000877,0
1191.11944444444,0.37,0.0260369536563443,0.0138259110717329,0.048632632020346,0
1191.12222222222,0.35,0.0132157805837012,0.0145801720490728,0.0489534675197942,0
1191.125,0.35,-0.00330197644336793,0.0153923198580858,0.0492652678200222,0
1191.12777777778,0.375,-0.0218609499874871,0.0162130151861449,0.0495667672859644,0
1191.13055555556,0.38,-0.0405014509027529,0.0169880761670394,0.0498565277705231,0
1191.13333333333,0.365,-0.0571324599867539,0.0173568578873503,0.0501331704907064,0
1191.13611111111,0.35,-0.069721253991906,0.0172334782835316,0.0503954749706931,0
1191.13888888889,0.375,-0.0764826483988644,0.0169042837579346,0.0506428689489676,0
1191.14166666667,0.405,-0.0760506017606983,0.0168002233800635,0.0508756216975739,0
1191.14444444444,0.43,-0.0676162600302829,0.0169377569468154,0.0510948116131533,0
1191.14722222222,0.44,-0.0510193220386323,0.0173172488316962,0.0513023877876306,0
1191.15,0.42,-0.0267836423959247,0.0179227885930594,0.0515012193846958,0
1191.15277777778,0.425,0.00390709586694415,0.0187234308808717,0.0516963245506286,0
1191.15555555556,0.43,0.0392924449150875,0.01967577438157,0.0518913857402745,0
1191.15833333333,0.465,0.0771704713016643,0.0205662450995881,0.0520813905852666,0
1191.16111111111,0.515,0.115073921344102,0.0211155018698444,0.0522612086454141,0
1191.16388888889,0.545,0.150472094269263,0.0213139408294475,0.0524258935026968,0
1191.16666666667,0.545,0.180980715553351,0.0211950087194142,0.0525709823670085,0
1191.16944444444,0.54,0.204561138946832,0.0208329138916745,0.0526927704544285,0
1191.17222222222,0.56,0.219690914222795,0.0203363714221371,0.0527903984061107,0
1191.175,0.58,0.225490096789708,0.0198388601368252,0.052864536431201,0
1191.17777777778,0.615,0.221791456027036,0.0194861924623646,0.0529169484334268,0
1191.18055555556,0.625,0.209147640943701,0.019422454797007,0.0529503105455089,0
1191.18333333333,0.63,0.188773959548533,0.019745746697699,0.0529680146121331,0
1191.18611111111,0.64,0.162431229630047,0.0200321039135128,0.0529737773506812,0
1191.18888888889,0.645,0.132258646581225,0.0203273512603417,0.0529714288022641,0
1191.19166666667,0.645,0.100571292981087,0.020674977482003,0.052964781785205,0
1191.19444444444,0.655,0.0696403550399911,0.0211101883650761,0.052957420377548,0
1191.19722222222,0.685,0.0414759874443225,0.0216544038767263,0.0529525191107149,0
1191.2,0.66,0.0176328898080007,0.0223107570879394,0.0529475697548978,0
1191.20277777778,0.64,-0.000943013093131735,0.0230610913258999,0.0529388356512779,0
1191.20555555556,0.615,-0.0140117389292368,0.0238648438441647,0.0529296173334826,0
1191.20833333333,0.6,-0.0220699624689026,0.0246600568925919,0.0529215513295363,0
1191.21111111111,0.575,-0.0263107317675835,0.0253665816326772,0.052914735953552,0
1191.21388888889,0.56,-0.0285139135775413,0.0258913508775376,0.0529090997050818,0
1191.21666666667,0.535,-0.0308753450233345,0.0261354087987504,0.0529044981536125,0
1191.21944444444,0.515,-0.0357883471349238,0.0262686020284602,0.0529007419565479,0
1191.22222222222,0.51,-0.0455958588931575,0.0268642101341643,0.0528976910525368,0
1191.225,0.5,-0.0623345598821734,0.0279871165798134,0.052895164909027,0
1191.22777777778,0.485,-0.0874936709318613,0.029673824753668,0.0528928877418301,0
1191.23055555556,0.455,-0.121810511002748,0.0319258878536321,0.0528904802090658,0
1191.23333333333,0.42,-0.165122364874735,0.0347055104105821,0.0528878022927913,0
1191.23611111111,0.395,-0.216289963760736,0.0379338242264545,0.0528848606160106,0
1191.23888888889,0.395,-0.273202233272492,0.0414921559127007,0.0528816065856393,0
1191.24166666667,0.405,-0.332865376215782,0.0452263845404904,0.0528780050195702,0
1191.24444444444,0.415,-0.391572372170624,0.0489542525383629,0.0528740139815001,0
1191.24722222222,0.39,-0.445142171859102,0.0524752590482538,0.0528695780390204,0
1191.25,0.365,-0.489211812715057,0.0555825509702079,0.0528646403958799,0
1191.25277777778,0.355,-0.519559896091969,0.0580760502433241,0.0528594643930262,0
1191.25555555556,0.34,-0.532436758374054,0.0597759313290687,0.0528542266834439,0
1191.25833333333,0.34,-0.524875513949796,0.0605355014114741,0.052849052288127,0
1191.26111111111,0.34,-0.494959063801045,0.0604796312686035,0.0528440565690553,0
1191.26388888889,0.33,-0.442021095482051,0.061177531298832,0.0528393111092315,0
1191.26666666667,0.295,-0.366763828521784,0.0624782826082267,0.0528346950950954,0
1191.26944444444,0.245,-0.271281415574002,0.0642072673485201,0.0528300691765651,0
1191.27222222222,0.245,-0.158985007822313,0.0661819683759652,0.0528252872713034,0
1191.275,0.305,-0.0344329692209171,0.0682277907409164,0.0528202091554681,0
1191.27777777778,0.41,0.0969230172758914,0.0701925795321669,0.0528147163452051,0
1191.28055555556,0.57,0.229058745118113,0.0719586392072825,0.0528087209606246,0
1191.28333333333,0.74,0.355742819957549,0.0734512890554353,0.0528021708908238,0
1191.28611111111,0.94,0.47092073458049,0.0746432974184244,0.0527950508902977,0
1191.28888888889,1.185,0.569090423856823,0.0755548968504536,0.0527873790731221,0
1191.29166666667,1.44,0.645642672075876,0.0762494625506922,0.052779313212447,0
1191.29444444444,1.695,0.697142405372425,0.0768253047697959,0.0527710443115788,0
1191.29722222222,1.89,0.721531369207975,0.0774043514533223,0.0527627000806453,1
1191.3,1.945,0.718238601239631,0.0775972879814317,0.0527543283484378,0
1191.30277777778,1.785,0.688191988604772,0.0766194340536423,0.052745823677023,0
1191.30555555556,1.475,0.633731499643309,0.0752679814751285,0.0527370478708803,0
1191.30833333333,1.1,0.558431831125114,0.0734630412696338,0.0527279205245246,0
1191.31111111111,0.745,0.466848661258318,0.0711646319276844,0.0527184559949314,0
1191.31388888889,0.49,0.364207958802748,0.0683788438627445,0.0527086745185439,0
1191.31666666667,0.35,0.256061484970481,0.0651599923764188,0.0526985932202329,0
1191.31944444444,0.315,0.147933484880373,0.0616085771872692,0.0526882238920237,0
1191.32222222222,0.31,0.0449834963406503,0.0578652216306103,0.0526775178873285,0
1191.325,0.305,-0.0482917421408739,0.0541011007445604,0.0526664043439747,0
1191.32777777778,0.285,-0.128297925358199,0.0505056566312158,0.0526548379090331,0
1191.33055555556,0.285,-0.192509971521072,0.0472726181424367,0.0526427924398638,0
1191.33333333333,0.29,-0.239557479251993,0.044680298041339,0.0526302368616888,0
1191.33611111111,0.295,-0.269226695356344,0.0431104922776864,0.0526173102045111,0
1191.33888888889,0.285,-0.282383099095772,0.0425820763703499,0.0526042106203372,0
1191.34166666667,0.28,-0.280824412852911,0.0428299780305639,0.0525910468583007,0
1191.34444444444,0.29,-0.267078569310818,0.0421465433110845,0.0525778603975297,0
1191.34722222222,0.295,-0.244164568309897,0.0405599364581059,0.0525646859387419,0
1191.35,0.265,-0.215336026278649,0.0381502600221687,0.05255156685734,0
1191.35277777778,0.27,-0.183827472410216,0.0350438773099474,0.0525385554757229,0
1191.35555555556,0.275,-0.152622126912264,0.0316046436819754,0.0525257135613159,0
1191.35833333333,0.255,-0.124257180900795,0.0281293206323346,0.0525131091720308,0
1191.36111111111,0.27,-0.100678764201683,0.0247967873258567,0.0525008146328633,0
1191.36388888889,0.26,-0.083154195057692,0.0217617719692112,0.0524889048122196,0
1191.36666666667,0.24,-0.0722441597217466,0.0191474668153868,0.0524774559475912,0
1191.36944444444,0.23,-0.0678325866200072,0.0170406902029085,0.0524665442556221,0
1191.37222222222,0.235,-0.0692075519072278,0.0154897492458461,0.0524562438872628,0
1191.375,0.245,-0.0751829180578506,0.0145049619651255,0.0524466220029552,0
1191.37777777778,0.245,-0.0842478205806414,0.0140616166225351,0.0524377080881976,0
1191.38055555556,0.23,-0.0947297366951915,0.0141049911827578,0.0524295380529445,0
1191.38333333333,0.23,-0.104956742465149,0.0144494414267362,0.0524221606390695,0
1191.38611111111,0.215,-0.113405632690233,0.0142679701566426,0.0524155965648148,0
1191.38888888889,0.22,-0.118824684566248,0.0136669005609534,0.0524098344386414,0
1191.39166666667,0.255,-0.120322755778626,0.0127686208624424,0.0524048464779846,0
1191.39444444444,0.265,-0.117419828534243,0.0117011292601079,0.0524005859905064,0
1191.39722222222,0.265,-0.110057723141561,0.0106622714133431,0.0523969857013169,0
1191.4,0.235,-0.0985731889393102,0.00975514827027609,0.052393956669204,0
1191.40277777778,0.22,-0.0836386457423082,0.00902493732186781,0.0523913895433574,0
1191.40555555556,0.225,-0.0661782567216923,0.00849592700307099,0.0523891547539612,0
1191.40833333333,0.235,-0.0472685952662378,0.00817217648375084,0.0523870821456526,0
1191.41111111111,0.275,-0.0280338368581737,0.00803962490340028,0.0523849755607665,0
1191.41388888889,0.27,-0.00954516026814823,0.00800988876195468,0.0523827827596296,0
1191.41666666667,0.255,0.00726704090108003,0.0078575491813281,0.0523806082545664,0
1191.41944444444,0.25,0.0216813068869672,0.00762856363639567,0.0523785615036071,0
1191.42222222222,0.27,0.0332290502051998,0.00737062574364451,0.0523768422942705,0
1191.425,0.29,0.0417122269145788,0.00712894720056473,0.0523757070062841,0
1191.42777777778,0.305,0.0471952096405143,0.00694266042703613,0.0523753994798172,0
1191.43055555556,0.305,0.0499736404149419,0.00684206999869051,0.0523761420595745,0
1191.43333333333,0.27,0.0505249378156753,0.00684689530547855,0.0523781324531678,0
1191.43611111111,0.255,0.0494464698739019,0.00676535487542462,0.0523765744042999,0
1191.43888888889,0.29,0.047388095011377,0.00653544097264506,0.0523666329241649,0
1191.44166666667,0.3,0.0449857958161061,0.00620667128838212,0.0523475727967071,0
1191.44444444444,0.33,0.0428025259172223,0.00579934322931231,0.0523188020931937,0
1191.44722222222,0.345,0.0412812556415611,0.00533924043857892,0.0522799280017369,0
1191.45,0.345,0.0407136783699879,0.00485495787215389,0.0522308159585019,0
1191.45277777778,0.32,0.0412262955552862,0.00437521007027392,0.0521716475191201,0
1191.45555555556,0.315,0.0427838138677382,0.0039263483570548,0.0521029713089301,0
1191.45833333333,0.34,0.0452081355874884,0.00353027803251199,0.0520257710004133,0
1191.46111111111,0.355,0.0482098528122549,0.00320291919934998,0.0519414425163318,0
1191.46388888889,0.35,0.051428180832899,0.00295329943766805,0.0518517886160915,0
1191.46666666667,0.335,0.0544747546256528,0.00278330813453335,0.0517590370187361,0
1191.46944444444,0.32,0.0569766840796453,0.0026880857836341,0.0516657697821729,0
1191.47222222222,0.33,0.0586146891888768,0.00265697136487628,0.051574818145123,0
1191.475,0.365,0.0591529439616965,0.00267489053747976,0.0514892279975614,0
1191.47777777778,0.365,0.0584583417496216,0.0026496622276958,0.0514051068070703,0
1191.48055555556,0.375,0.0565081283909964,0.00258799796866462,0.0513178938494002,0
1191.48333333333,0.37,0.0533860989070189,0.00253164765204783,0.0512230940247429,0
1191.48611111111,0.375,0.0492686908176713,0.0024959336769561,0.0511164888854386,0
1191.48888888889,0.385,0.0444032237885426,0.00249234666951976,0.0509943327884915,0
1191.49166666667,0.395,0.0390811516349978,0.0025276115767399,0.0508535197572464,0
1191.49444444444,0.405,0.0336094647283269,0.00256784820560152,0.0506925413680131,0
1191.49722222222,0.41,0.0282833029708399,0.00257254621674486,0.0505116421735539,0
1191.5,0.4,0.0233624431466513,0.00254533648143571,0.0503119427068039,0
1191.50277777778,0.395,0.0190536729171944,0.00249348971632028,0.0500954410987601,0
1191.50555555556,0.395,0.0155002439987218,0.00242628539218424,0.0498649679606047,0
1191.50833333333,0.41,0.0127787094488646,0.00235332182644558,0.0496240940458628,0
1191.51111111111,0.41,0.0109025968184136,0.00228297271871151,0.0493769931862319,0
1191.51388888889,0.4,0.00983164341217921,0.00223181530762815,0.0491282620188299,0
1191.51666666667,0.38,0.00948479645414069,0.00224526043752313,0.0488827148880236,0
1191.51944444444,0.395,0.00975490780476146,0.0022853733247893,0.048645154922088,0
1191.52222222222,0.42,0.0105230478181452,0.00231906765034196,0.0484167530519054,0
1191.525,0.44,0.0116706124393691,0.00235292852031505,0.048195618478032,0
1191.52777777778,0.465,0.0130878594993762,0.00239505856612588,0.0479802718885282,0
1191.53055555556,0.465,0.0146781190803334,0.00245385607521253,0.0477696575826617,0
1191.53333333333,0.455,0.0163575985026187,0.0025367698880738,0.0475631040487287,0
1191.53611111111,0.46,0.0180513591382276,0.00264919357306969,0.0473602385136863,0
1191.53888888889,0.475,0.0196865985340125,0.00279363876079824,0.0471608641116609,0
1191.54166666667,0.48,0.0211847595704314,0.00296928863279894,0.0469648135620782,0
1191.54444444444,0.5,0.0224541621911303,0.00317198232402241,0.0467717949189433,0
1191.54722222222,0.5,0.0233847925774629,0.00339462553070582,0.0465812458876794,0
1191.55,0.485,0.0238465979071676,0.00362796854046787,0.0463922397757457,0
1191.55277777778,0.475,0.0236921577193537,0.00386164661008947,0.0462034232761641,0
1191.55555555556,0.495,0.0227639941795797,0.00408534455168491,0.0460129179515853,0
1191.55833333333,0.5,0.0209061182367857,0.00428993144141286,0.0458253722892399,0
1191.56111111111,0.51,0.0179787694371334,0.00444978607618483,0.0456453117675872,0
1191.56388888889,0.52,0.0138747747239362,0.004544979033404,0.0454758438980526,0
1191.56666666667,0.495,0.00853559530607456,0.00458250336938663,0.0453201795387674,0
1191.56944444444,0.495,0.00196500051343312,0.00457156583585813,0.0451814286731764,0
1191.57222222222,0.495,-0.00576157221308861,0.0045226698420423,0.0450611023828738,0
1191.575,0.5,-0.0144935459846402,0.0044828674790543,0.044959660729236,0
1191.57777777778,0.505,-0.0240086181862552,0.0044589921588783,0.0448766331212523,0
1191.58055555556,0.495,-0.0340233242984641,0.00444730125014379,0.0448113301068212,0
1191.58333333333,0.46,-0.0442102115734016,0.00444656607878492,0.0447673526859585,0
1191.58611111111,0.44,-0.0542202934856933,0.00445901774423058,0.0447423203014181,0
1191.58888888889,0.445,-0.0637087753186497,0.00449088163967661,0.0447334049895057,0
1191.59166666667,0.46,-0.0723615519681273,0.00455239426334249,0.044737555356278,0
1191.59444444444,0.45,-0.0799197456806294,0.00464660140819334,0.0447517127148956,0
1191.59722222222,0.425,-0.0861996124407785,0.00474684829808497,0.0447730080168651,0
1191.6,0.39,-0.0911055081997862,0.00485921703500952,0.0447989138400111,0
1191.60277777778,0.375,-0.0946342439725258,0.00498979749252192,0.044830734093695,0
1191.60555555556,0.375,-0.0968700143372462,0.00514378624159929,0.044872855214585,0
1191.60833333333,0.365,-0.0979700729249268,0.00532465389349503,0.0449281724396289,0
1191.61111111111,0.375,-0.098142348685225,0.00553346712587858,0.0449950583914004,0
1191.61388888889,0.365,-0.0976171377895918,0.0057684410532059,0.0450669520673524,0
1191.61666666667,0.365,-0.0966157614390868,0.00602477962447877,0.04514343296072,0
1191.61944444444,0.35,-0.0953195583966028,0.00629483751872582,0.045223861212574,0
1191.62222222222,0.335,-0.0938427173295911,0.0065686083166785,0.0453073218169207,0
1191.625,0.315,-0.092212216410968,0.00683451282508882,0.0453925855601052,0
1191.62777777778,0.3,-0.0903575330567005,0.00708043093988384,0.0454780931683254,0
1191.63055555556,0.285,-0.0881118616406854,0.00729489312655347,0.0455619676043859,0
1191.63333333333,0.28,-0.0852254142521966,0.0074683261559015,0.0456434236562646,0
1191.63611111111,0.285,-0.0813900909055654,0.00759423451437939,0.0457275216050846,0
1191.63888888889,0.3,-0.0762735215919594,0.00767019569765133,0.0458193462068222,0
1191.64166666667,0.29,-0.0695593395244477,0.00769855541079426,0.0459222460586961,0
1191.64444444444,0.285,-0.0609896710880067,0.00768672763607833,0.0460384308091644,0
1191.64722222222,0.295,-0.0504053297651686,0.00764703368966493,0.0461698040382163,0
1191.65,0.305,-0.0377791512334042,0.0076221493887894,0.0463177898903277,0
1191.65277777778,0.32,-0.02323833461439,0.00765282775384335,0.0464829844050908,0
1191.65555555556,0.32,-0.00707254227592531,0.00766566279969397,0.0466651722540231,0
1191.65833333333,0.32,0.0102742088588539,0.00763453348936369,0.0468634125601608,0
1191.66111111111,0.325,0.0282282681116907,0.00765259504796265,0.0470760504456675,0
1191.66388888889,0.34,0.0461263861305274,0.00774216795587289,0.0473006662072005,0
1191.66666666667,0.32,0.0632680933718748,0.00791339624142908,0.0475341488985094,0
1191.66944444444,0.315,0.0789759786182503,0.0081620477826267,0.0477728134863682,0
1191.67222222222,0.285,0.0926583131188209,0.00846863244441521,0.0480125571916797,0
1191.675,0.295,0.103867849227182,0.00879900903439492,0.0482490478082362,0
1191.67777777778,0.33,0.112350590302217,0.00910651580918677,0.0484779343190872,0
1191.68055555556,0.33,0.11807891774237,0.00933551225408972,0.0486982883639158,0
1191.68333333333,0.3,0.121264648048348,0.00942607588951146,0.0489121262699251,0
1191.68611111111,0.29,0.122349293967079,0.00931947107547807,0.0491209480176801,0
1191.68888888889,0.26,0.121970880104789,0.00896391032705932,0.0493255961329724,0
1191.69166666667,0.285,0.120908931757926,0.00873697638760863,0.0495262621509514,0
1191.69444444444,0.295,0.120011504532625,0.0086883927400995,0.0497230872408233,0
1191.69722222222,0.295,0.120110130883552,0.00883959768744045,0.0499160769924788,0
1191.7,0.29,0.121930119125406,0.00920024735955153,0.0501052721853972,0
1191.70277777778,0.305,0.126004574521814,0.00976668815752759,0.050290920073529,0
1191.70555555556,0.33,0.132600695721567,0.0105214161678937,0.0504736284271404,0
1191.70833333333,0.355,0.141666273770565,0.0114336358272297,0.0506544859871552,0
1191.71111111111,0.355,0.152802900378447,0.012460943265008,0.0508351358864875,0
1191.71388888889,0.34,0.165270268876347,0.0135520648004263,0.0510164273296099,0
1191.71666666667,0.32,0.178023288691942,0.0146504857273685,0.0511936928408841,0
1191.71944444444,0.315,0.189780754907734,0.0156987170302732,0.0513634407063811,0
1191.72222222222,0.33,0.199121282402476,0.0166428761169534,0.0515223342952107,0
1191.725,0.335,0.204599411231949,0.0174372092486476,0.0516668945016384,0
1191.72777777778,0.345,0.204872490850643,0.0180481637626921,0.0517939720113006,0
1191.73055555556,0.355,0.198827396562949,0.0184315334513825,0.0519022767270554,0
1191.73333333333,0.325,0.185695505721699,0.0185656913121904,0.0519914932051323,0
1191.73611111111,0.295,0.165144769910347,0.0185427640505038,0.0520622442067279,0
1191.73888888889,0.28,0.137339178284346,0.0186626187645892,0.0521158927448502,0
1191.74166666667,0.285,0.102958335890204,0.0187636775190153,0.0521544035525428,0
1191.74444444444,0.285,0.0631731055707511,0.018748717022861,0.0521803807127431,0
1191.74722222222,0.28,0.0195770282086594,0.0185332933391387,0.0521969373080047,0
1191.75,0.235,-0.0259227727332875,0.0183858293913432,0.0522073761533119,0
1191.75277777778,0.205,-0.071247631760989,0.0183887615758113,0.0522149941547624,0
1191.75555555556,0.175,-0.114311374750673,0.0185869733171942,0.0522229009080694,0
1191.75833333333,0.175,-0.153192823609946,0.0190061165139504,0.0522338624453052,0
1191.76111111111,0.175,-0.186301764563824,0.0196480935816503,0.0522469570452109,0
1191.76388888889,0.16,-0.212523155688933,0.0204882362421204,0.0522581893447168,0
1191.76666666667,0.135,-0.231325482514954,0.0214745527156783,0.0522641148749223,0
1191.76944444444,0.115,-0.242821617349266,0.0225292707148926,0.052262177384771,0
1191.77222222222,0.11,-0.247774143659558,0.0231358286189857,0.0522577738686226,0
1191.775,0.125,-0.247541607023169,0.0231069536534181,0.0522548246465652,0
1191.77777777778,0.135,-0.243967193963765,0.022500060376969,0.0522531959106886,0
1191.78055555556,0.145,-0.239216501843555,0.0222845800162041,0.0522527264246029,0
1191.78333333333,0.135,-0.235575900835619,0.0225702062521167,0.0522532428316842,0
1191.78611111111,0.12,-0.235227066463813,0.023444589494064,0.0522545646414447,0
1191.78888888889,0.14,-0.240016190026741,0.0249639068838723,0.0522565153095983,0
1191.79166666667,0.165,-0.251237849984198,0.0271449923680125,0.0522589307965081,0
1191.79444444444,0.205,-0.269453358982203,0.0299597438470386,0.0522616654295702,0
1191.79722222222,0.22,-0.294361531503727,0.0333323955619055,0.0522645951713503,0
1191.8,0.235,-0.324736332682817,0.0371400629023002,0.0522677045925987,0
1191.80277777778,0.25,-0.358440997331191,0.0412167452216841,0.0522708569433733,0
1191.80555555556,0.265,-0.392522303893841,0.0453607251701924,0.0522739788507384,0
1191.80833333333,0.3,-0.423382205489752,0.0493450482633126,0.0522770655396123,0
1191.81111111111,0.315,-0.447017478996145,0.05293052294932,0.0522801923786544,0
1191.81388888889,0.31,-0.459311995835934,0.0558804682417707,0.0522834363334508,0
1191.81666666667,0.295,-0.456361165041603,0.0579602333396379,0.0522868643033127,0
1191.81944444444,0.295,-0.434804503877784,0.0587701576979391,0.0522905234151851,0
1191.82222222222,0.32,-0.392140500642177,0.0588909057112208,0.0522944339987555,0
1191.825,0.355,-0.326998156306252,0.0602675692190236,0.0522984872726423,0
1191.82777777778,0.38,-0.239341874639721,0.0629113604429917,0.0523024059020282,0
1191.83055555556,0.45,-0.130590594657709,0.0664312146756625,0.0523059943946765,0
1191.83333333333,0.51,-0.00363794273824923,0.0705809769085675,0.0523092153112126,0
1191.83611111111,0.61,0.137232699982575,0.0751216478821673,0.0523120245022606,0
1191.83888888889,0.76,0.286536501713294,0.0798152766288549,0.0523143734746027,0
1191.84166666667,0.95,0.437869229929304,0.0844423267944755,0.0523162108551827,0
1191.84444444444,1.145,0.584266039561154,0.08881706544148,0.0523174830513712,0
1191.84722222222,1.34,0.71861373608766,0.092799744597985,0.0523181341260885,0
1191.85,1.53,0.834088636816189,0.0963046126098913,0.0523181309602747,0
1191.85277777778,1.73,0.92458957660755,0.0993031401806428,0.052317665863506,0
1191.85555555556,1.925,0.985135301082087,0.101822246100298,0.0523165096517893,0
1191.85833333333,2.06,1.01219752053223,0.103734221143562,0.0523146789607402,1
1191.86111111111,2.125,1.00394513602685,0.104073324154452,0.0523122058727677,0
1191.86388888889,2.1,0.960381293292631,0.10280507888876,0.0523091371403226,0
1191.86666666667,1.935,0.883362513425748,0.101136466762863,0.0523055402245688,0
1191.86944444444,1.685,0.776497617115368,0.099335605043412,0.0523014990356428,0
1191.87222222222,1.345,0.644932852403666,0.0972889304430156,0.052297096717406,0
1191.875,0.97,0.495037885171266,0.0949205470876485,0.0522924070240576,0
1191.87777777778,0.645,0.334014478995802,0.092202291892458,0.0522874899560472,0
1191.88055555556,0.41,0.169455223013714,0.0891594694702103,0.0522824038514251,0
1191.88333333333,0.29,0.00888313760221075,0.0858717209563755,0.0522771175824052,0
1191.88611111111,0.2,-0.140695864499085,0.0824689040824039,0.052271325135159,0
1191.88888888889,0.16,-0.273196938440279,0.0791222861290011,0.0522646558250633,0
1191.89166666667,0.14,-0.383789511498466,0.0760317512209643,0.0522570970348836,0
1191.89444444444,0.145,-0.469138100008258,0.0734100650028654,0.0522490052046702,0
1191.89722222222,0.125,-0.527536207057246,0.0714654941981454,0.0522406749890087,0
1191.9,0.065,-0.558926855536859,0.0706804040170099,0.0522323544992021,0
1191.90277777778,-0.005,-0.564811746067415,0.070750583874831,0.0522242630045688,0
1191.90555555556,-0.035,-0.548059153382505,0.0697139602290174,0.0522165751630293,0
1191.90833333333,-0.055,-0.512627861580056,0.0675367785616222,0.0522094140109732,0
1191.91111111111,-0.055,-0.463230145009539,0.0642524834989753,0.0522027440485456,0
1191.91388888889,-0.06,-0.404960610395728,0.059961845933009,0.0521963240140534,0
1191.91666666667,-0.075,-0.342919368335426,0.0548279258165564,0.0521899081801323,0
1191.91944444444,-0.1,-0.281857416849892,0.0494845486148213,0.0521832794522591,0
1191.92222222222,-0.105,-0.22586939553509,0.0442709769173865,0.0521762802352547,0
1191.925,-0.1,-0.178154275248415,0.039430158857931,0.0521688339179356,0
1191.92777777778,-0.11,-0.14085849937059,0.0351660571989429,0.052160961498416,0
1191.93055555556,-0.1,-0.115009110975129,0.0316344299216651,0.052152620100497,0
1191.93333333333,-0.125,-0.100537071508638,0.0289372328811317,0.0521438801624775,0
1191.93611111111,-0.135,-0.0963839003709783,0.0271208027872063,0.052135102089059,0
1191.93888888889,-0.14,-0.100678504568186,0.0261777111461003,0.0521263238999935,0
1191.94166666667,-0.145,-0.11096610495038,0.0260519325187072,0.0521176086302166,0
1191.94444444444,-0.15,-0.124467861956001,0.0266467606784523,0.0521090440046147,0
1191.94722222222,-0.17,-0.138348373468422,0.0266793964576792,0.0521007381542549,0
1191.95,-0.185,-0.149968712962042,0.0258699541813998,0.0520928113397461,0
1191.95277777778,-0.23,-0.157104988260721,0.0243882472881619,0.0520853951651158,0
1191.95555555556,-0.25,-0.158116272115997,0.0224333376791976,0.0520785250649068,0
1191.95833333333,-0.245,-0.152050804790851,0.0203706376483485,0.0520720495232694,0
1191.96111111111,-0.24,-0.138685128034372,0.0184279081506452,0.0520658344248983,0
1191.96388888889,-0.245,-0.11849676634708,0.0166977737057469,0.0520597789694714,0
1191.96666666667,-0.265,-0.092576712356439,0.0152432231731781,0.0520537184524814,0
1191.96944444444,-0.29,-0.0624928294563013,0.0140968331519357,0.0520473583246032,0
1191.97222222222,-0.275,-0.0301189705735832,0.0132623222133191,0.0520400315900939,0
1191.975,-0.265,0.00255314521237171,0.0128084620048876,0.0520296758583559,0
1191.97777777778,-0.25,0.0336015946692878,0.0128177140276139,0.0520140648004519,0
1191.98055555556,-0.24,0.061344662954501,0.0129206820580644,0.0519908867892098,0
1191.98333333333,-0.245,0.0844795701176645,0.0128942546184131,0.0519578470852508,0
1191.98611111111,-0.255,0.102178600400156,0.0128027874156416,0.0519128101134863,0
1191.98888888889,-0.255,0.1141360661905,0.0127058568796353,0.0518537138151857,0
1191.99166666667,-0.235,0.12056428285712,0.0126534816251186,0.0517790184388732,0
1191.99444444444,-0.22,0.122141438810965,0.0126826824573056,0.0516878693698536,0
1191.99722222222,-0.215,0.119918497645287,0.0128155429504556,0.0515802278613563,0
1192,-0.22,0.115195701593147,0.0126404868652283,0.0514569575993741,0
1192.00277777778,-0.235,0.109381579180398,0.0122944580180478,0.0513198575905126,0
1192.00555555556,-0.24,0.103848424338219,0.0118654051977824,0.0511716354155004,0
1192.00833333333,-0.22,0.0997979590764233,0.0113821095336006,0.051015818927097,0
1192.01111111111,-0.195,0.0981493879008421,0.0108787236205646,0.0508567780077922,0
1192.01388888889,-0.2,0.0994594813228183,0.0103909416990327,0.0506982781122082,0
1192.01666666667,-0.195,0.103880961119542,0.00995235623954472,0.0505369373730067,0
1192.01944444444,-0.215,0.111161638199813,0.00959131591345329,0.0503700335118836,0
1192.02222222222,-0.22,0.120682842832119,0.00932853124042865,0.0501956141664126,0
1192.025,-0.22,0.131532050957367,0.00917558881359452,0.0500125374936957,0
1192.02777777778,-0.195,0.142601576925606,0.00913444143410772,0.0498204424364279,0
1192.03055555556,-0.175,0.152703034038241,0.00919784845604088,0.049619653918203,0
1192.03333333333,-0.17,0.160686133470343,0.00935065629278723,0.0494110407913185,0
1192.03611111111,-0.17,0.165550371626969,0.00957174026060927,0.0491959242839315,0
1192.03888888889,-0.19,0.166539212480523,0.00968307455529186,0.0489759056617857,0
1192.04166666667,-0.17,0.163208372292279,0.00963980666388826,0.048752204563614,0
1192.04444444444,-0.165,0.155462542392684,0.00951477695747189,0.0485257446497306,0
1192.04722222222,-0.17,0.143558062663315,0.00938197635280548,0.0482970026852184,0
1192.05,-0.175,0.128072371241221,0.00930899220190696,0.0480659091725149,0
1192.05277777778,-0.185,0.10984418808293,0.00935038506194268,0.0478341269092818,0
1192.05555555556,-0.185,0.0898910506221249,0.00945224474864746,0.0476068151065936,0
1192.05833333333,-0.175,0.0693127706218602,0.00950553819993766,0.0473856045299718,0
1192.06111111111,-0.16,0.0491904578543616,0.00952067592300822,0.0471725001473038,0
1192.06388888889,-0.17,0.0304908810693879,0.00951245383859804,0.0469697066001279,0
1192.06666666667,-0.185,0.0139851247920132,0.00949835197731219,0.0467794340238993,0
1192.06944444444,-0.185,0.000188855365608105,0.00949667413725429,0.0466039291112982,0
1192.07222222222,-0.17,-0.0106707885666562,0.00952471150579661,0.0464448178150888,0
1192.075,-0.16,-0.0186593795873406,0.00959710036322485,0.0463028489138204,0
1192.07777777778,-0.15,-0.0241110152988139,0.00972451605765108,0.0461779996741915,0
1192.08055555556,-0.15,-0.0275790425002496,0.00991280590471488,0.0460694031971627,0
1192.08333333333,-0.18,-0.0297673034269245,0.0099329037217744,0.0459753377459834,0
1192.08611111111,-0.2,-0.0314492407337768,0.00970561598846366,0.0458928592666762,0
1192.08888888889,-0.2,-0.0333831656195157,0.00935051882003,0.045817349058596,0
1192.09166666667,-0.175,-0.036232129736133,0.00895965247509835,0.0457441328305419,0
1192.09444444444,-0.165,-0.0404961540725479,0.00854771621001027,0.0456698528435364,0
1192.09722222222,-0.155,-0.0464631439566874,0.0081303171031498,0.0455989225381055,0
1192.1,-0.165,-0.0541828150060047,0.00772259972440279,0.0455356276059404,0
1192.10277777778,-0.16,-0.0634655791904158,0.00733800498834685,0.0454836210601485,0
1192.10555555556,-0.165,-0.0739058333383736,0.00698726753675175,0.0454458759246649,0
1192.10833333333,-0.145,-0.0849267019449335,0.0066777325202642,0.0454237362887572,0
1192.11111111111,-0.13,-0.0958412427452957,0.0064130381492851,0.045417227066339,0
1192.11388888889,-0.11,-0.105923619042817,0.00619317340630255,0.0454163921387505,0
1192.11666666667,-0.1,-0.114482912337804,0.00601488443902049,0.045413235252946,0
1192.11944444444,-0.105,-0.120932158756208,0.00587237166785375,0.0454079993303571,0
1192.12222222222,-0.095,-0.124845835639179,0.0057581952345288,0.0454013121566322,0
1192.125,-0.075,-0.126000321272763,0.00570118494915699,0.0453938568601805,0
1192.12777777778,-0.065,-0.12439365942797,0.00566648670092132,0.0453863147267696,0
1192.13055555556,-0.05,-0.120243092008894,0.00560813840558241,0.0453792550884632,0
1192.13333333333,-0.055,-0.113961060538157,0.00553513266938318,0.0453729830860804,0
1192.13611111111,-0.015,-0.106112497176306,0.00546249001169183,0.0453676543258358,0
1192.13888888889,-0.02,-0.0973580211597045,0.00539137581445093,0.0453628082012166,0
1192.14166666667,0.015,-0.0883889557378281,0.0053257108310892,0.0453580674528266,0
1192.14444444444,0.035,-0.0798607650491123,0.00527182445040418,0.0453531573539199,0
1192.14722222222,0.045,-0.0723315242498767,0.00523786812896522,0.0453479152115483,0
1192.15,0.025,-0.0662113915818652,0.00523304865793515,0.045342018752914,0
1192.15277777778,0.01,-0.0617278251960949,0.00526675441989818,0.0453353460017518,0
1192.15555555556,0.01,-0.0589096142265903,0.00534765417881689,0.0453280249120827,0
1192.15833333333,0.02,-0.0575908488789526,0.00548284712836925,0.045320189100161,0
1192.16111111111,0.025,-0.0574339382439404,0.00567713545119113,0.0453119705680728,0
1192.16388888889,0.025,-0.0579689008948329,0.00593247761580248,0.0453034968651716,0
1192.16666666667,-0.005,-0.0586445890028508,0.00624766356486617,0.0452948486454852,0
1192.16944444444,-0.015,-0.0588864133237613,0.00650742929793108,0.0452859705596397,0
1192.17222222222,-0.01,-0.0581546155569219,0.00663959226474904,0.045276882106137,0
1192.175,0.01,-0.0559972282935562,0.00666235928815659,0.04526768760712,0
1192.17777777778,0.04,-0.0520925501294028,0.00660234977571973,0.0452585777921415,0
1192.18055555556,0.05,-0.0462771635975754,0.00649141614065552,0.0452491750925633,0
1192.18333333333,0.04,-0.03855710445303,0.00636299531413788,0.0452391772639714,0
1192.18611111111,0.025,-0.0291015836268022,0.00624838801233312,0.0452283701182532,0
1192.18888888889,0.015,-0.0182204796801141,0.00617336345942146,0.0452163895739524,0
1192.19166666667,0.02,-0.00632847178282402,0.00615544659372121,0.045202835488164,0
1192.19444444444,0.02,0.00609999752333955,0.00620216702316888,0.0451873749734616,0
1192.19722222222,0.02,0.0185798863553451,0.006310442569132,0.045177113368904,0
1192.2,0.005,0.0306634941355839,0.00646714647823731,0.0451796626037737,0
1192.20277777778,-0.01,0.0419820937922836,0.00665077936514273,0.0451952758122208,0
1192.20555555556,-0.015,0.0522769719487146,0.00679715416595115,0.0452235648246062,0
1192.20833333333,0.005,0.0614168400523892,0.00690356390964752,0.0452634446053278,0
1192.21111111111,0.03,0.0694001335091863,0.00698058009791396,0.0453127897750646,0
1192.21388888889,0.025,0.0763424086587422,0.00699005215090029,0.0453678324202212,0
1192.21666666667,0.025,0.0824506961599244,0.00693397168621036,0.045424635474465,0
1192.21944444444,0.015,0.0879880967596637,0.00686858935738637,0.0454807793551283,0
1192.22222222222,0.025,0.0932329582125283,0.00678179701857025,0.0455402024042644,0
1192.225,0.04,0.0984375371489061,0.00666354138885781,0.0456069240258062,0
1192.22777777778,0.06,0.103791065913704,0.00650676721324819,0.0456848210556287,0
1192.23055555556,0.055,0.109391609476408,0.00630824392886255,0.0457753969956323,0
1192.23333333333,0.035,0.115230068316161,0.00606921747318304,0.0458792817655992,0
1192.23611111111,0,0.121188270118596,0.00579583256397696,0.0459963350350345,0
1192.23888888889,0.015,0.127051448830287,0.00549927810800445,0.0461257283145838,0
1192.24166666667,0.015,0.132533713185557,0.00519561966012288,0.046266096478647,0
1192.24444444444,0.05,0.137313545059894,0.00490529807256339,0.0464157261710453,0
1192.24722222222,0.075,0.141075115735106,0.00465229229286886,0.0465727362910657,0
1192.25,0.045,0.143550409515744,0.00446296591390097,0.0467352823839611,0
1192.25277777778,0.02,0.144556896819187,0.00436464034705995,0.0469017824187363,0
1192.25555555556,0.015,0.144025843031829,0.00438396079142177,0.0470710773909929,0
1192.25833333333,0.025,0.142017252403571,0.00454514262881776,0.0472425403922801,0
1192.26111111111,0.05,0.138718843697411,0.00486820346608816,0.0474124591345351,0
1192.26388888889,0.07,0.134428197814527,0.00536729778855364,0.0475803274302505,0
1192.26666666667,0.035,0.129519128080978,0.00604927534586697,0.0477451529439785,0
1192.26944444444,0.03,0.124395199381473,0.00691257967759888,0.0479056031878653,0
1192.27222222222,0.045,0.119434958698889,0.00794658895430156,0.0480601092127244,0
1192.275,0.06,0.114934651759702,0.00913147769494965,0.0482070646648047,0
1192.27777777778,0.09,0.111054842150899,0.0104386459196878,0.0483450579279031,0
1192.28055555556,0.09,0.107777329359226,0.0118317237675348,0.0484730619397596,0
1192.28333333333,0.09,0.104878055741751,0.0132681171919631,0.0485905955458343,0
1192.28611111111,0.065,0.101920345196462,0.0147010172937101,0.0486978416748028,0
1192.28888888889,0.07,0.0982709420828559,0.0160817557755594,0.0487957127576011,0
1192.29166666667,0.1,0.0931390900644484,0.0173623555848726,0.0488858547947048,0
1192.29444444444,0.13,0.0856365220283997,0.0184981024463681,0.0489705901123072,0
1192.29722222222,0.13,0.0748539612427337,0.0194133280637646,0.0490528022669596,0
1192.3,0.13,0.0599477963621529,0.0200114472403519,0.0491351434879819,0
1192.30277777778,0.11,0.0402291995577892,0.0202833863092531,0.0492141473805587,0
1192.30555555556,0.115,0.0152472714593251,0.0202378638030466,0.0492863506143029,0
1192.30833333333,0.11,-0.015142082925698,0.0202378875306897,0.0493485123690964,0
1192.31111111111,0.12,-0.0507288955127798,0.0204797911593675,0.0493978126928725,0
1192.31388888889,0.12,-0.0909291278313274,0.0209463640132014,0.0494323981042241,0
1192.31666666667,0.075,-0.134795208151168,0.0216135332566872,0.0494516560353307,0
1192.31944444444,0.03,-0.181057644450422,0.0224526287710055,0.0494557730669887,0
1192.32222222222,0.015,-0.228195318114115,0.0234328929572712,0.0494506485690028,0
1192.325,0.02,-0.274529252939112,0.0245240070453196,0.0494477187180954,0
1192.32777777778,-0.01,-0.318332239587957,0.0256983956192991,0.0494466148915315,0
1192.33055555556,-0.055,-0.357944927838677,0.0269330824478073,0.049446918413023,0
1192.33333333333,-0.11,-0.391888074125489,0.0282109035859356,0.0494481805538568,0
1192.33611111111,-0.115,-0.418960670817344,0.029520936425001,0.0494499513627649,0
1192.33888888889,-0.09,-0.438314717566634,0.030858072325803,0.0494518066700573,0
1192.34166666667,-0.055,-0.449499359270928,0.032221740409433,0.049453408483321,0
1192.34444444444,-0.02,-0.452469852473825,0.0336138743989071,0.0494551641096472,0
1192.34722222222,0.005,-0.447560094638625,0.0350362956993671,0.0494574118181775,0
1192.35,0.025,-0.435420960707466,0.0364877565774313,0.0494603840837656,0
1192.35277777778,0.045,-0.4169301072637,0.0379609402339485,0.0494642252423674,0
1192.35555555556,0.09,-0.393081892263422,0.0394397437859781,0.049468990236978,0
1192.35833333333,0.175,-0.36486831273939,0.0408971714548725,0.0494746492171224,0
1192.36111111111,0.245,-0.333163138546011,0.0422941365914481,0.0494811022303969,0
1192.36388888889,0.305,-0.298621556375133,0.043579413077842,0.0494881986032726,0
1192.36666666667,0.35,-0.261606577184437,0.0446908922765292,0.0494957564500643,0
1192.36944444444,0.405,-0.222151256044095,0.0455581966962541,0.0495035824601485,0
1192.37222222222,0.465,-0.179962591019965,0.0461065837025354,0.0495114903458556,0
1192.375,0.53,-0.13446907065102,0.0462619512913439,0.0495193165865415,0
1192.37777777778,0.61,-0.0849095687420961,0.0459566434008335,0.049526931675491,0
1192.38055555556,0.685,-0.0304570294362458,0.0454428702455751,0.0495343801374923,0
1192.38333333333,0.78,0.0296334530628663,0.0460444065824489,0.0495417021300268,0
1192.38611111111,0.85,0.0958655988746728,0.0477762224484971,0.0495489073209876,0
1192.38888888889,0.925,0.168347318723557,0.0502597659034796,0.0495559666277271,0
1192.39166666667,0.985,0.246656457349636,0.0532415298335575,0.0495627897554937,0
1192.39444444444,1.045,0.329741992677043,0.0566401485252543,0.0495692687923414,0
1192.39722222222,1.125,0.41587347539482,0.0603427227633702,0.0495753793299564,0
1192.4,1.195,0.502647900654767,0.0642082967443099,0.049581107287832,0
1192.40277777778,1.275,0.587058592423882,0.0680735668847839,0.049586467426218,0
1192.40555555556,1.35,0.665625424010809,0.0717605920277449,0.0495914975976188,0
1192.40833333333,1.415,0.734580238831675,0.0750861101496725,0.0495961719182113,0
1192.41111111111,1.465,0.790096150264553,0.0778719233681361,0.0496004343865716,0
1192.41388888889,1.515,0.828544956626811,0.0799557030255245,0.0496042916853407,0
1192.41666666667,1.565,0.846763624493866,0.0812014999205685,0.0496077632075706,1
1192.41944444444,1.62,0.842308999247069,0.081509228370084,0.0496108752290745,0
1192.42222222222,1.68,0.813679803773437,0.0808224299991166,0.0496136537592607,0
1192.425,1.74,0.760486650455143,0.0791337131785788,0.0496161166492457,0
1192.42777777778,1.75,0.683554132425451,0.0772122902582113,0.0496182656905979,0
1192.43055555556,1.635,0.58494384452203,0.0757218480427498,0.0496200795243505,0
1192.43333333333,1.35,0.467893049019057,0.0745482037191067,0.0496215005835879,0
1192.43611111111,0.99,0.336670181113419,0.0735794871793034,0.0496224251909766,0
1192.43888888889,0.67,0.196354956142136,0.0727189498863564,0.0496227059386438,0
1192.44166666667,0.395,0.0525569478750101,0.0718959669378869,0.0496221568961686,0
1192.44444444444,0.19,-0.0889083634417361,0.0710742201227647,0.0496208739231004,0
1192.44722222222,0.055,-0.222363368168332,0.070256299609661,0.0496189935447263,0
1192.45,-0.05,-0.342607272644119,0.0694842814206059,0.0496166713045389,0
1192.45277777778,-0.13,-0.445225547732514,0.0688361991649467,0.0496140716940265,0
1192.45555555556,-0.195,-0.526847178057733,0.0684186998171672,0.04961135644495,0
1192.45833333333,-0.225,-0.585330805002606,0.0683565216464671,0.0496086720942624,0
1192.46111111111,-0.225,-0.619866191550402,0.068472511034432,0.0496061378382176,0
1192.46388888889,-0.245,-0.63098388625392,0.0675281897972016,0.0496038344389564,0
1192.46666666667,-0.285,-0.620473005132771,0.0657919171877622,0.0496017965676568,0
1192.46944444444,-0.33,-0.591214109532271,0.0632847541900169,0.0496000207508712,0
1192.47222222222,-0.345,-0.546940656291842,0.059986237540109,0.0495984916539225,0
1192.475,-0.345,-0.491947900618731,0.0559736304929765,0.0495972183010695,0
1192.47777777778,-0.345,-0.430771999396417,0.0516624387436664,0.04959617508474,0
1192.48055555556,-0.36,-0.367864079642085,0.0472702694822752,0.0495953063996388,0
1192.48333333333,-0.37,-0.307284045511513,0.043007788974627,0.0495945107195568,0
1192.48611111111,-0.39,-0.252436908804595,0.0390669146316233,0.0495936528922692,0
1192.48888888889,-0.4,-0.205870621466327,0.0356106622472311,0.0495926459939903,0
1192.49166666667,-0.395,-0.169149095447565,0.0327652575746247,0.0495916056428073,0
1192.49444444444,-0.4,-0.142807770170912,0.0306149456787712,0.0495905076970198,0
1192.49722222222,-0.39,-0.12639226925416,0.029199729259356,0.0495892406807233,0
1192.5,-0.415,-0.11857395175638,0.0285160540737144,0.0495876216778279,0
1192.50277777778,-0.445,-0.117330072162431,0.0285202519151451,0.0495856640009858,0
1192.50555555556,-0.48,-0.120171319806983,0.0291343647608171,0.0495834456456023,0
1192.50833333333,-0.48,-0.124396110902063,0.0295289328165373,0.0495810869461715,0
1192.51111111111,-0.48,-0.127349415958155,0.02901358504322,0.0495787404719469,0
1192.51388888889,-0.495,-0.126664224822026,0.0277152015771987,0.0495765827818921,0
1192.51666666667,-0.525,-0.12046591764638,0.0258374565774081,0.0495748006106739,0
1192.51944444444,-0.56,-0.107523601255444,0.0239572287064041,0.0495735666013734,0
1192.52222222222,-0.595,-0.0873375277101145,0.0221784032390267,0.0495730137089931,0
1192.525,-0.615,-0.0601575723404758,0.020583169557121,0.0495729009877843,0
1192.52777777778,-0.625,-0.0269338867612526,0.0192287818443378,0.0495727869473258,0
1192.53055555556,-0.65,0.010793282208947,0.0181464438859916,0.049572232102872,0
1192.53333333333,-0.675,0.0510525123175919,0.0173422362464284,0.049571515927798,0
1192.53611111111,-0.705,0.0916328664797701,0.0167998516892,0.0495710001053741,0
1192.53888888889,-0.725,0.130289913041037,0.0164847793099256,0.0495711122289473,0
1192.54166666667,-0.725,0.164947036990321,0.0163494882653353,0.0495723224314292,0
1192.54444444444,-0.725,0.193874004218327,0.0163391137075613,0.0495690003647333,0
1192.54722222222,-0.725,0.215827358955363,0.0162810849755287,0.04955318364174,0
1192.55,-0.755,0.230141169129661,0.0162075953062986,0.0495223851093667,0
1192.55277777778,-0.785,0.236761501855473,0.0161636571211781,0.0494746645139253,0
1192.55555555556,-0.79,0.236223351176291,0.0161441674804916,0.0494088200279694,0
1192.55833333333,-0.795,0.229574058213093,0.0160403892318401,0.0493245456913205,0
1192.56111111111,-0.78,0.218252077012704,0.0158449825494865,0.0492225415728169,0
1192.56388888889,-0.78,0.203933819657398,0.0155633348160796,0.04910456988047,0
1192.56666666667,-0.79,0.188363926621192,0.0152116507507923,0.0489734529314059,0
1192.56944444444,-0.8,0.173185440074964,0.014814194665076,0.0488330648158816,0
1192.57222222222,-0.775,0.159785935603536,0.0144000092932365,0.0486890636022013,0
1192.575,-0.775,0.149173762486505,0.0139994594661511,0.0485445334316965,0
1192.57777777778,-0.795,0.141895360568713,0.0136409400196364,0.0483939203298129,0
1192.58055555556,-0.82,0.138000483364051,0.0133480483492415,0.0482316271785374,0
1192.58333333333,-0.865,0.137057465945548,0.0131374580994334,0.0480537996367105,0
1192.58611111111,-0.905,0.138215880361155,0.0130176487596519,0.0478576794542366,0
1192.58888888889,-0.93,0.140309471048563,0.0129885548501832,0.0476415709641201,0
1192.59166666667,-0.955,0.141988568736158,0.0130421067848358,0.0474048345889634,0
1192.59444444444,-0.935,0.141868577179937,0.0131635518865699,0.047147803077311,0
1192.59722222222,-0.915,0.138679839215184,0.0132962619210961,0.0468716293205311,0
1192.6,-0.925,0.131404316612503,0.0131000407921876,0.0465780800875696,0
1192.60277777778,-0.96,0.119386027335974,0.0128994534118476,0.0462692943161187,0
1192.60555555556,-0.965,0.102404909859666,0.0127142875384725,0.0459474960514684,0
1192.60833333333,-0.965,0.080707450766217,0.012560141824939,0.0456147812700239,0
1192.61111111111,-0.97,0.0549916575793621,0.0124470026678594,0.0452738666632957,0
1192.61388888889,-0.975,0.0263483724561943,0.0123784587845975,0.044931772743163,0
1192.61666666667,-0.99,-0.00383491775705907,0.0123515995857126,0.0445956838632447,0
1192.61944444444,-1,-0.0339981058768725,0.0123575734131941,0.0442674287461286,0
1192.62222222222,-0.995,-0.0625481125817235,0.0123827175481917,0.0439476296714018,0
1192.625,-0.99,-0.0880006089560647,0.0124101195791481,0.0436373084002146,0
1192.62777777778,-0.995,-0.109110240318508,0.0123988052783669,0.0433378101594286,0
1192.63055555556,-1.015,-0.124977056597732,0.0124214787661039,0.043050602828437,0
1192.63333333333,-1.02,-0.135119297273833,0.0124938427206084,0.0427770518570891,0
1192.63611111111,-1.01,-0.139506038954274,0.0126196691951668,0.042518191358562,0
1192.63888888889,-1.005,-0.138547158729421,0.0126029523240374,0.0422745137703918,0
1192.64166666667,-1.01,-0.133042211558894,0.0123756145526034,0.0420457949537785,0
1192.64444444444,-0.975,-0.124093764531465,0.0120330666078294,0.0418309698743816,0
1192.64722222222,-0.975,-0.112994097187731,0.0116302406107654,0.0416280664260574,0
1192.65,-0.985,-0.101096646196811,0.0111788311829812,0.0414342171759405,0
1192.65277777778,-1,-0.089684914339976,0.0106931864840818,0.0412441092612232,0
1192.65555555556,-1.005,-0.0798516579906087,0.0101889644909879,0.0410537543769696,0
1192.65833333333,-0.995,-0.0724000150758539,0.00968179111169908,0.0408678654688835,0
1192.66111111111,-0.97,-0.0677759579562596,0.00918606346096107,0.0406912965216445,0
1192.66388888889,-0.935,-0.0660382816400213,0.00871401777628589,0.0405287558525626,0
1192.66666666667,-0.92,-0.0668685813329748,0.00827514540083238,0.040384519511365,0
1192.66944444444,-0.915,-0.0696197031647541,0.00787599624087216,0.0402621653739047,0
1192.67222222222,-0.9,-0.07339735553298,0.00752036211241904,0.0401624904152409,0
1192.675,-0.865,-0.0771663148513945,0.00720978764003842,0.0400848273675645,0
1192.67777777778,-0.82,-0.0798702635533955,0.00717272261948354,0.0400274776208098,0
1192.68055555556,-0.78,-0.0805529907844911,0.00739366898862188,0.0399878862733065,0
1192.68333333333,-0.73,-0.0784685919064096,0.00757044280478908,0.0399628549205065,0
1192.68611111111,-0.71,-0.0731694283449573,0.00770243245569188,0.0399488024691142,0
1192.68888888889,-0.67,-0.064562842657248,0.00778757818282584,0.0399420353062397,0
1192.69166666667,-0.635,-0.0529307457384754,0.00782220517057352,0.0399388875859141,0
1192.69444444444,-0.59,-0.0389098984150308,0.00780121401753624,0.039935920059288,0
1192.69722222222,-0.54,-0.0234346362011544,0.00771862127835634,0.0399300862164091,0
1192.7,-0.5,-0.0076475499527434,0.00756839771983386,0.0399239932238778,0
1192.70277777778,-0.485,0.00721313189652738,0.00747238301033511,0.0399214600686655,0
1192.70555555556,-0.48,0.0199383293827167,0.00765099860240268,0.0399192158739491,0
1192.70833333333,-0.485,0.0294726351063133,0.0080247378205573,0.0399156747005941,0
1192.71111111111,-0.47,0.0350260616603971,0.00846941228117705,0.0399108220761757,0
1192.71388888889,-0.45,0.0361616426374602,0.00897606684311631,0.0399048247790545,0
1192.71666666667,-0.43,0.032849786553111,0.00953102094604848,0.0398979095039458,0
1192.71944444444,-0.435,0.0254834616232463,0.0101162311042775,0.0398903167649867,0
1192.72222222222,-0.415,0.0148520737838705,0.0107101419939457,0.0398822547448332,0
1192.725,-0.405,0.00207592688026062,0.0111452289333987,0.03987385846907,0
1192.72777777778,-0.395,-0.0114929665503589,0.0113191861394328,0.0398652255776379,0
1192.73055555556,-0.385,-0.0243946001859611,0.0112025471698939,0.0398564256344313,0
1192.73333333333,-0.4,-0.0351975886047151,0.0108080401481225,0.0398474940078014,0
1192.73611111111,-0.425,-0.0426356555178653,0.0105109492105053,0.0398382656166259,0
1192.73888888889,-0.425,-0.0457308152354681,0.0103199452736421,0.0398285845339077,0
1192.74166666667,-0.385,-0.0438911846913374,0.0102364197073735,0.0398182982086606,0
1192.74444444444,-0.37,-0.0369736562051396,0.0102541339941541,0.0398118327912369,0
1192.74722222222,-0.37,-0.0253049191857023,0.0103595297367026,0.0398121587369112,0
1192.75,-0.395,-0.00965823799595006,0.0105327024143311,0.0398207724260874,0
1192.75277777778,-0.39,0.00881239666851433,0.0107489781627727,0.0398387895637153,0
1192.75555555556,-0.365,0.0286750249719617,0.0109809721220484,0.0398672174878789,0
1192.75833333333,-0.34,0.0483500682626054,0.0109725517982147,0.0399067814075318,0
1192.76111111111,-0.33,0.0662562112940778,0.0107901840193893,0.0399577507028236,0
1192.76388888889,-0.33,0.0809581314162959,0.0106665737821174,0.0400198320160693,0
1192.76666666667,-0.35,0.091302053952738,0.0106164085683303,0.0400920910495922,0
1192.76944444444,-0.35,0.0965261095238188,0.0106464780004617,0.0401729175617562,0
1192.77222222222,-0.36,0.0963347162364174,0.0107549299924776,0.0402600245626814,0
1192.775,-0.335,0.090929506103872,0.0109313181213888,0.0403504955948268,0
1192.77777777778,-0.325,0.0809933580590274,0.0111574600057851,0.0404408815178762,0
1192.78055555556,-0.33,0.0676285132324061,0.0114090506462148,0.0405340148175684,0
1192.78333333333,-0.315,0.052254117066498,0.0115310307819347,0.0406354712315663,0
1192.78611111111,-0.33,0.036472443046401,0.0113143165488435,0.0407496032102521,0
1192.78888888889,-0.345,0.0219161296715805,0.0111574761674506,0.0408802956739806,0
1192.79166666667,-0.345,0.0100907064126891,0.0110837833029528,0.0410307909967901,0
1192.79444444444,-0.305,0.00222730061663076,0.0111095783287074,0.04120355841738,0
1192.79722222222,-0.295,-0.000840366076542076,0.0112423722092507,0.0414001820035157,0
1192.8,-0.305,0.00123729326738673,0.011479719074741,0.0416212048297373,0
1192.80277777778,-0.325,0.00828398422587697,0.0118089859913768,0.041866024764782,0
1192.80555555556,-0.34,0.0196053399296605,0.0122080684885362,0.0421328507840886,0
1192.80833333333,-0.31,0.0340462468920903,0.0126470139013841,0.0424186582805772,0
1192.81111111111,-0.3,0.0500929882961543,0.0130904294696701,0.0427192637411211,0
1192.81388888889,-0.29,0.0660112324533329,0.0134872768532954,0.0430295946234514,0
1192.81666666667,-0.295,0.0800074140139757,0.0134542192925266,0.0433439314793952,0
1192.81944444444,-0.295,0.0903987023040382,0.0132175659642152,0.0436561951769551,0
1192.82222222222,-0.295,0.0957757567840474,0.0131093888919386,0.0439602628015083,0
1192.825,-0.275,0.0951429410574957,0.0131452577657428,0.044256452639916,0
1192.82777777778,-0.26,0.0880225750984526,0.01332916967982,0.0445452752091005,0
1192.83055555556,-0.275,0.0745129869791357,0.0136527939206345,0.0448267205568631,0
1192.83333333333,-0.3,0.0552942965677867,0.0140957780852446,0.0451003617358189,0
1192.83611111111,-0.315,0.0315806457285839,0.0146271085055063,0.0453653383313262,0
1192.83888888889,-0.335,0.00502254333872148,0.0152074214858822,0.0456206607123798,0
1192.84166666667,-0.33,-0.0224323402751871,0.0156487863429189,0.0458655679358331,0
1192.84444444444,-0.295,-0.0487076528150301,0.0157054380444785,0.0460997132564559,0
1192.84722222222,-0.285,-0.0717809923240598,0.0153809318312949,0.0463232868839386,0
1192.85,-0.27,-0.0898640993754351,0.0150497229145352,0.0465371417151609,0
1192.85277777778,-0.285,-0.101564066787971,0.0148735686998392,0.04674288022921,0
1192.85555555556,-0.3,-0.106010607658221,0.0148713813884566,0.0469428757748276,0
1192.85833333333,-0.345,-0.102937406134408,0.015049632673883,0.0471417346004076,0
1192.86111111111,-0.355,-0.0927096964038079,0.0154020959653242,0.0473387167230896,0
1192.86388888889,-0.365,-0.0762951028975774,0.0159107219006207,0.0475296852557671,0
1192.86666666667,-0.36,-0.0551799833692425,0.0165039228869592,0.0477102987322221,0
1192.86944444444,-0.34,-0.0312385670108007,0.0167428788881504,0.0478762658086679,0
1192.87222222222,-0.31,-0.00656660297821609,0.0165956216460359,0.0480236112498116,0
1192.875,-0.28,0.0167053850054299,0.0160702680779329,0.0481489322284646,0
1192.87777777778,-0.255,0.0366021281295058,0.0152898119259249,0.0482500307847899,0
1192.88055555556,-0.25,0.0514793683274986,0.0145575657528671,0.0483277569439388,0
1192.88333333333,-0.255,0.0601689586312164,0.0138931122719376,0.0483839791357247,0
1192.88611111111,-0.26,0.0620796341526759,0.0133056987717041,0.0484214558255108,0
1192.88888888889,-0.24,0.0572437857762783,0.0127940941606278,0.0484436297183647,0
1192.89166666667,-0.21,0.0463055165983971,0.0123476715524877,0.0484543787964391,0
1192.89444444444,-0.18,0.0304507044713138,0.0119486376459836,0.048457774850124,0
1192.89722222222,-0.15,0.0112852356333059,0.0120154058036731,0.0484583353841687,0
1192.9,-0.15,-0.00932748810855076,0.0123851661711221,0.048459089226755,0
1192.90277777778,-0.185,-0.0294546947121584,0.012769270235388,0.0484633736739087,0
1192.90555555556,-0.2,-0.047290339042527,0.013177861664222,0.0484680217408169,0
1192.90833333333,-0.2,-0.0613404290361155,0.0136098798653213,0.0484694856879313,0
1192.91111111111,-0.2,-0.070579557134112,0.0140507175908684,0.0484723204268698,0
1192.91388888889,-0.205,-0.0745629940704739,0.0144712027951913,0.0484769155376845,0
1192.91666666667,-0.24,-0.0734825716395026,0.014828125452327,0.048483514498861,0
1192.91944444444,-0.29,-0.0681596082683168,0.0150663963786847,0.0484922124773442,0
1192.92222222222,-0.32,-0.0599738756013638,0.0151227762484131,0.0485027899963443,0
1192.925,-0.335,-0.050733554568294,0.0149309616594252,0.0485149127905595,0
1192.92777777778,-0.335,-0.0424967487804763,0.0153024778829108,0.0485282345698719,0
1192.93055555556,-0.36,-0.0373598973651642,0.0161708665836259,0.048542417649801,0
1192.93333333333,-0.38,-0.0372319132412449,0.0174417329292052,0.048557107269375,0
1192.93611111111,-0.39,-0.0436147306844895,0.0191302013582491,0.0485719334200759,0
1192.93888888889,-0.38,-0.0574109828643239,0.021224331509927,0.0485868465454092,0
1192.94166666667,-0.365,-0.0787777104586355,0.023682005503341,0.0486020075085819,0
1192.94444444444,-0.36,-0.10704145540105,0.0264299232429576,0.0486175340207569,0
1192.94722222222,-0.39,-0.140685102761264,0.029364964684594,0.0486334953579906,0
1192.95,-0.405,-0.177410813160573,0.0323580004557887,0.0486499102691579,0
1192.95277777778,-0.43,-0.214276848118522,0.0352600391781344,0.0486667469933447,0
1192.95555555556,-0.44,-0.247899593159104,0.0379104065733855,0.0486837245306506,0
1192.95833333333,-0.43,-0.274706193147553,0.0400719618307178,0.0487005287155106,0
1192.96111111111,-0.41,-0.29121844956767,0.0413726918357039,0.0487171732595112,0
1192.96388888889,-0.4,-0.294345416790736,0.0417733435181039,0.0487336854967088,0
1192.96666666667,-0.42,-0.281660770788192,0.0416154532421122,0.0487500702170392,0
1192.96944444444,-0.44,-0.251641650091057,0.0423308852290666,0.0487663379082146,0
1192.97222222222,-0.47,-0.203848256891377,0.0439402681871735,0.0487825381637271,0
1192.975,-0.47,-0.139027860322021,0.046414720122439,0.0487986934608063,0
1192.97777777778,-0.465,-0.0591326170853526,0.0492346187424209,0.0488147966618334,0
1192.98055555556,-0.435,0.0327526524655098,0.0522011562512974,0.0488308151433804,0
1192.98333333333,-0.4,0.132569473517997,0.0551329629094421,0.0488467007620788,0
1192.98611111111,-0.345,0.235521319655822,0.057871620194109,0.0488623978451445,0
1192.98888888889,-0.24,0.336369447014057,0.0602935616120308,0.0488778511808008,0
1192.99166666667,-0.085,0.429767698060078,0.062318565628457,0.0488930130980287,0
1192.99444444444,0.13,0.510611789458724,0.063914178970861,0.0489078491787061,0
1192.99722222222,0.32,0.574377314352331,0.0650957695049947,0.0489221375333259,0
1193,0.515,0.617421447868113,0.0659222906077445,0.0489357274325663,0
1193.00277777778,0.7,0.637226079324668,0.0664882100322308,0.0489486488912873,1
1193.00555555556,0.865,0.632564576295358,0.0669123835828912,0.0489609710209356,0
1193.00833333333,0.89,0.603580242885863,0.0664998576193449,0.048972791016297,0
1193.01111111111,0.68,0.55177128568545,0.0659716048006867,0.0489842322475417,0
1193.01388888889,0.35,0.479884195438833,0.0652165067125796,0.0489954905584913,0
1193.01666666667,-0.005,0.391724318016111,0.064151597453043,0.0490067343258564,0
1193.01944444444,-0.3,0.291898478078859,0.062731279988996,0.0490180372821316,0
1193.02222222222,-0.485,0.18550935739835,0.0609530639100981,0.0490294694257191,0
1193.025,-0.57,0.0778245512005981,0.0588593383800155,0.0490410942138903,0
1193.02777777778,-0.62,-0.0260553972793499,0.0565350446884537,0.0490529659646438,0
1193.03055555556,-0.63,-0.121506224155017,0.0541014707849387,0.0490651276489951,0
1193.03333333333,-0.655,-0.204645046042684,0.0517067243629001,0.0490776101203365,0
1193.03611111111,-0.68,-0.272533916573143,0.0495137228163786,0.0490906334081954,0
1193.03888888889,-0.675,-0.323309628541335,0.0476867440591431,0.0491044319662166,0
1193.04166666667,-0.635,-0.356233548271556,0.0463776951105375,0.0491192340721081,0
1193.04444444444,-0.615,-0.371661548463774,0.0457132671825016,0.049135118573925,0
1193.04722222222,-0.59,-0.370940155404072,0.0456424770192975,0.0491519614350874,0
1193.05,-0.615,-0.356240366448024,0.0447899773302039,0.0491695581297227,0
1193.05277777778,-0.615,-0.330344817803451,0.0431578806061231,0.0491876170400751,0
1193.05555555556,-0.6,-0.296406789760657,0.0407975467400466,0.0492058429368741,0
1193.05833333333,-0.57,-0.257700752981352,0.0378063585129441,0.0492239559691737,0
1193.06111111111,-0.545,-0.217383749718528,0.0344072370443673,0.0492419592588041,0
1193.06388888889,-0.54,-0.178284969038438,0.0308835817834645,0.0492600194133621,0
1193.06666666667,-0.545,-0.142737639955904,0.0274149107546612,0.0492783097787273,0
1193.06944444444,-0.545,-0.112463155799602,0.0241645733153452,0.0492970045770196,0
1193.07222222222,-0.53,-0.088512550992702,0.021271483569796,0.049316273940743,0
1193.075,-0.53,-0.0712655044431808,0.0188439232715051,0.0493362789669596,0
1193.07777777778,-0.505,-0.0604823635094018,0.016955682757084,0.0493571092130833,0
1193.08055555556,-0.495,-0.0554006495031833,0.0156446334982751,0.049378192749326,0
1193.08333333333,-0.515,-0.0548644279596675,0.0149136543528597,0.0493939127357042,0
1193.08611111111,-0.525,-0.0574730162560581,0.0147336778385844,0.0494040468790287,0
1193.08888888889,-0.54,-0.0617348586818362,0.0149987419872762,0.0494084242908299,0
1193.09166666667,-0.55,-0.0662130108839067,0.014717318177277,0.0494069144925073,0
1193.09444444444,-0.52,-0.0696504190143053,0.0139899029286101,0.0493994114490438,0
1193.09722222222,-0.51,-0.0710658378510563,0.0129355360513323,0.0493859300797253,0
1193.1,-0.53,-0.0698145205025329,0.0116814828708917,0.0493664982820972,0
1193.10277777778,-0.545,-0.0656114023882051,0.0103529640101453,0.0493409405381225,0
1193.10555555556,-0.565,-0.0585180560257487,0.00906376990145175,0.0493090995197218,0
1193.10833333333,-0.57,-0.0488978932859636,0.00790848084809331,0.0492708798590099,0
1193.11111111111,-0.55,-0.0373466690312248,0.00695684000338655,0.049226302730918,0
1193.11388888889,-0.565,-0.0246070957939932,0.00625061363394862,0.0491755666236712,0
1193.11666666667,-0.585,-0.0114772001817459,0.00580304090786679,0.0491191084940289,0
1193.11944444444,-0.61,0.00127808328098656,0.00560074557255787,0.0490576587663953,0
1193.12222222222,-0.63,0.0130036077941606,0.00560777461935824,0.0489922834356191,0
1193.125,-0.615,0.0232122890723959,0.00577126190748468,0.0489245277578099,0
1193.12777777778,-0.61,0.0316205424441599,0.00584819831589436,0.0488564426940803,0
1193.13055555556,-0.61,0.0381590409102323,0.00583813576034036,0.0487903404106382,0
1193.13333333333,-0.635,0.0429595473434635,0.00577731065294088,0.0487270628844846,0
1193.13611111111,-0.615,0.0463209359452017,0.00569881513869687,0.0486615534070092,0
1193.13888888889,-0.63,0.0486594304917298,0.00566961379517212,0.048588681749309,0
1193.14166666667,-0.62,0.0504493867929079,0.00570698366223993,0.0485050025122274,0
1193.14444444444,-0.61,0.0521615383208857,0.00569981930194962,0.0484082090101065,0
1193.14722222222,-0.605,0.0542054848560243,0.0056420579531317,0.0482963772175573,0
1193.15,-0.61,0.05688238451583,0.00553439177863543,0.0481681134466437,0
1193.15277777778,-0.63,0.0603524246090306,0.00538310525755295,0.048022684311588,0
1193.15555555556,-0.62,0.0646198621021785,0.00519858630769739,0.0478601183779959,0
1193.15833333333,-0.63,0.069536438311999,0.00499368344982297,0.0476814996214255,0
1193.16111111111,-0.635,0.0748219946754282,0.00478207433943951,0.0474883183864743,0
1193.16388888889,-0.635,0.0800993475746107,0.00457679053966061,0.0472828389339117,0
1193.16666666667,-0.655,0.0849390917148819,0.00438901260394106,0.047068039317685,0
1193.16944444444,-0.675,0.088909120029594,0.00422721210156063,0.0468475062137025,0
1193.17222222222,-0.67,0.0916233441170796,0.00409667709836557,0.0466252788370842,0
1193.175,-0.655,0.0927843823344019,0.00399941860563009,0.0464056673126349,0
1193.17777777778,-0.645,0.0922158024598686,0.00393442096930163,0.0461930457404295,0
1193.18055555556,-0.65,0.0898807589663786,0.0038981717068732,0.045988507975121,0
1193.18333333333,-0.66,0.0858854073004701,0.00388538763635769,0.0457904530018108,0
1193.18611111111,-0.665,0.0804671400537331,0.00388984504552034,0.0455978232858602,0
1193.18888888889,-0.685,0.0739692963743399,0.00390522194298278,0.0454100639014354,0
1193.19166666667,-0.665,0.066805381230993,0.0039258691045128,0.0452265455168876,0
1193.19444444444,-0.65,0.0594168575395728,0.00394744200482697,0.045046903824113,0
1193.19722222222,-0.65,0.0522291448056836,0.00396734569216208,0.0448709213851228,0
1193.2,-0.66,0.0456105255440714,0.00398496690173699,0.0446983685931485,0
1193.20277777778,-0.68,0.0398382312244856,0.00400168993073641,0.0445288422743229,0
1193.20555555556,-0.675,0.0350751100821171,0.00402071297145515,0.0443616189054549,0
1193.20833333333,-0.66,0.0313590712793856,0.00404669809149704,0.0441955382993495,0
1193.21111111111,-0.645,0.02860608790597,0.00408529975300464,0.0440289732748511,0
1193.21388888889,-0.65,0.0266260777620679,0.00414262314066605,0.0438614536319564,0
1193.21666666667,-0.655,0.025149620613855,0.00422466464478323,0.0436980231240734,0
1193.21944444444,-0.66,0.0238623546777513,0.00429757073543568,0.0435425090398732,0
1193.22222222222,-0.645,0.0224431364215229,0.0042829932391144,0.043398588797058,0
1193.225,-0.635,0.0206017200278282,0.0041910691152307,0.0432699325264257,0
1193.22777777778,-0.6,0.0181118434662789,0.00403930501412352,0.0431595770816655,0
1193.23055555556,-0.575,0.0148361761221025,0.00385072938028899,0.0430687145423826,0
1193.23333333333,-0.555,0.0107405219197912,0.00365144605489387,0.0429975849415029,0
1193.23611111111,-0.545,0.00589587749392502,0.00346785648096814,0.042945518341401,0
1193.23888888889,-0.535,0.000468286206432032,0.00332385006484734,0.0429108154645589,0
1193.24166666667,-0.525,-0.00530223799798038,0.00323826259689711,0.0428913421348087,0
1193.24444444444,-0.505,-0.0111312590780062,0.00322287126015859,0.0428843675870108,0
1193.24722222222,-0.485,-0.0167245716994922,0.00328113533174261,0.0428867568110562,0
1193.25,-0.495,-0.0218140481979246,0.00340781076214267,0.0428951769305888,0
1193.25277777778,-0.51,-0.0261906505275913,0.00358947312610274,0.0429063040277987,0
1193.25555555556,-0.505,-0.0297308923643118,0.00380588694563155,0.0429170153989259,0
1193.25833333333,-0.495,-0.0324137488677661,0.00403207026466058,0.0429245578155205,0
1193.26111111111,-0.47,-0.0343260449679389,0.00424083092689941,0.0429299029583735,0
1193.26388888889,-0.455,-0.0356555970412203,0.00440550278279749,0.0429371424864619,0
1193.26666666667,-0.465,-0.0366727053558489,0.00450259095822416,0.0429498653284685,0
1193.26944444444,-0.465,-0.0377018556540409,0.00451404721026413,0.0429708208748569,0
1193.27222222222,-0.47,-0.0390865543609293,0.00442893787377151,0.0429944067877335,0
1193.275,-0.455,-0.0411509804085034,0.0043310833680993,0.0430162751856455,0
1193.27777777778,-0.435,-0.0441625070748892,0.00427596985030233,0.0430362195127238,0
1193.28055555556,-0.43,-0.0482990897659448,0.00426275267055956,0.043054051661623,0
1193.28333333333,-0.445,-0.0536250353201137,0.00429008290287159,0.0430696077317046,0
1193.28611111111,-0.46,-0.0600778145384187,0.00435623658194268,0.0430827622306399,0
1193.28888888889,-0.47,-0.0674674408227519,0.0044592245582649,0.0430934409669899,0
1193.29166666667,-0.46,-0.0754886327510094,0.00459687271903224,0.0431171536101862,0
1193.29444444444,-0.455,-0.083744643661247,0.00476686450910961,0.0431553578698274,0
1193.29722222222,-0.445,-0.0917804170613019,0.00496674088782411,0.0432077885384868,0
1193.3,-0.465,-0.0991217422023316,0.00519385704758851,0.0432732143684336,0
1193.30277777778,-0.475,-0.105316444279604,0.00544530022786771,0.043349581023541,0
1193.30555555556,-0.48,-0.109973417760672,0.00571777844849668,0.0434339863453659,0
1193.30833333333,-0.485,-0.112795525631381,0.00600749546820514,0.0435217241248872,0
1193.31111111111,-0.495,-0.113603022217271,0.00631003212948384,0.0436092075762803,0
1193.31388888889,-0.51,-0.112345148679454,0.00662025779146645,0.0437008038885659,0
1193.31666666667,-0.535,-0.1090987962697,0.00693229709646349,0.0438009710256744,0
1193.31944444444,-0.57,-0.104054503194747,0.00723957627725101,0.0439125431937065,0
1193.32222222222,-0.575,-0.0974914022532862,0.00753496919360142,0.0440370555313247,0
1193.325,-0.56,-0.0897439244801988,0.00781105616218481,0.0441750768580048,0
1193.32777777778,-0.565,-0.0811639605453686,0.00806049862308583,0.0443262844660879,0
1193.33055555556,-0.575,-0.0720826873846831,0.00827652034461161,0.0444896167909661,0
1193.33333333333,-0.595,-0.0627763231427727,0.0084534721409255,0.044663473676964,0
1193.33611111111,-0.62,-0.0534396663233317,0.00858744320820414,0.044845952402552,0
1193.33888888889,-0.65,-0.0441704411867097,0.00867686963406554,0.0450350998450317,0
1193.34166666667,-0.64,-0.0349662928584401,0.0087230809472481,0.0452291567671828,0
1193.34444444444,-0.64,-0.0257348723869186,0.00873072022442933,0.0454267717725347,0
1193.34722222222,-0.625,-0.0163159705007448,0.00870797349379362,0.0456271654778352,0
1193.35,-0.635,-0.00651325702547064,0.00866655080290498,0.0458302022962605,0
1193.35277777778,-0.65,0.00386798587891367,0.0086560375445695,0.0460310020758576,0
1193.35555555556,-0.675,0.0149815517714018,0.0086874611091128,0.0462281809677183,0
1193.35833333333,-0.665,0.0269041746806258,0.00868598825061573,0.0464200072848345,0
1193.36111111111,-0.66,0.0396071519458432,0.00863207123436282,0.0466044014487282,0
1193.36388888889,-0.67,0.0529396195889305,0.00850722143654903,0.0467791618768057,0
1193.36666666667,-0.695,0.066626230173365,0.00829561404623166,0.0469422106113967,0
1193.36944444444,-0.71,0.0802804863819458,0.00801378393234577,0.0470918444094265,0
1193.37222222222,-0.745,0.0934332804033061,0.00780135846897767,0.047226969053569,0
1193.375,-0.74,0.105574452264624,0.00767595026168849,0.0473472864377459,0
1193.37777777778,-0.725,0.11620359201466,0.00764150058285752,0.0474534189699069,0
1193.38055555556,-0.735,0.124885045237984,0.00768676509118865,0.0475469440889572,0
1193.38333333333,-0.755,0.131301286353512,0.00778525502087266,0.0476304501726998,0
1193.38611111111,-0.78,0.135298604646144,0.00789671808199072,0.0477073861418725,0
1193.38888888889,-0.805,0.136919454481083,0.00797009444648572,0.0477818722071891,0
1193.39166666667,-0.795,0.136416842386921,0.00794773457111865,0.0478572903335107,0
1193.39444444444,-0.805,0.134247685477348,0.00777053188506932,0.0479296262966786,0
1193.39722222222,-0.785,0.131044045964009,0.0073910927140901,0.0479954052910384,0
1193.4,-0.785,0.127563346360391,0.00721095629010972,0.0480518035978744,0
1193.40277777778,-0.795,0.12462088955553,0.00726275987952182,0.0480967118194316,0
1193.40555555556,-0.79,0.123010026101646,0.00756907287802245,0.0481287841777629,0
1193.40833333333,-0.765,0.123416916733785,0.00814020216138614,0.0481474349166058,0
1193.41111111111,-0.745,0.126337851456796,0.00897271420331226,0.0481681008903277,0
1193.41388888889,-0.735,0.13200737768732,0.0100488340922857,0.0481907572044649,0
1193.41666666667,-0.735,0.140344993820663,0.0113368221829322,0.0482151899635025,0
1193.41944444444,-0.74,0.150926889698888,0.0127923572032831,0.0482411227354532,0
1193.42222222222,-0.74,0.162987245987994,0.0143608754909257,0.0482682379749259,0
1193.425,-0.71,0.175451095231939,0.0159807359251821,0.0482962009559023,0
1193.42777777778,-0.675,0.186997911688468,0.0175870058410313,0.0483246805961577,0
1193.43055555556,-0.68,0.196152188778097,0.0191156014747074,0.0483535362573474,0
1193.43333333333,-0.67,0.201394553787051,0.0204728104629843,0.0483825514859981,0
1193.43611111111,-0.665,0.20128472385296,0.0215282475325862,0.0484118647900446,0
1193.43888888889,-0.655,0.194586057239167,0.0222876189670806,0.0484416043743938,0
1193.44166666667,-0.65,0.180380775880999,0.0227799062206202,0.0484718573992388,0
1193.44444444444,-0.64,0.158165231281393,0.0230539899916745,0.0485026712831714,0
1193.44722222222,-0.645,0.127915871479411,0.0231731563720939,0.0485340572260093,0
1193.45,-0.65,0.0901187660549733,0.0231798587229752,0.0485659953747277,0
1193.45277777778,-0.665,0.0457584952533834,0.0231599995435948,0.0485984347842618,0
1193.45555555556,-0.67,-0.0037343312366826,0.0230951343109941,0.0486312016318078,0
1193.45833333333,-0.67,-0.0565739865768964,0.022943025582505,0.0486642605225157,0
1193.46111111111,-0.655,-0.110742470141855,0.0226859058829755,0.0486975467441933,0
1193.46388888889,-0.68,-0.164134663850818,0.0223352606606424,0.0487309622258141,0
1193.46666666667,-0.71,-0.214713809703079,0.0219340219186952,0.0487644804081452,0
1193.46944444444,-0.71,-0.260663932914622,0.0215558049437935,0.0487981525369754,0
1193.47222222222,-0.735,-0.300525605668815,0.0213010706638677,0.0488321044496615,0
1193.475,-0.75,-0.333302437596843,0.0212903675545055,0.0488665245888379,0
1193.47777777778,-0.76,-0.35852784871052,0.0216475017149947,0.0489015304572724,0
1193.48055555556,-0.775,-0.376284878666785,0.0220567710107895,0.0489368751266257,0
1193.48333333333,-0.775,-0.387175764832223,0.0225736938503076,0.0489722772572702,0
1193.48611111111,-0.785,-0.392242453318269,0.0232579949505803,0.0490074518969051,0
1193.48888888889,-0.785,-0.392843712125965,0.0241671615406286,0.0490423768324388,0
