time_s,raw_ecg,filtered_ecg,diff_envelope,threshold,is_r_peak
1098.48611111111,-0.165,-0.280468232424693,0.0269170060240621,0.063539810135264,0
1098.48888888889,-0.195,-0.296540142321321,0.0269850198970001,0.0635449049498854,0
1098.49166666667,-0.205,-0.309888756348108,0.0274698492424798,0.0635510005787096,0
1098.49444444444,-0.215,-0.322159844113483,0.028452333975257,0.0635580702481822,0
1098.49722222222,-0.235,-0.335043183206077,0.0299911779034368,0.063565984100293,0
1098.5,-0.22,-0.350059689717202,0.0321151421828176,0.0635745612079182,0
1098.50277777778,-0.215,-0.368348683977348,0.0348166687571992,0.0635835834496412,0
1098.50555555556,-0.2,-0.390475953976846,0.0380475588485147,0.0635927631819734,0
1098.50833333333,-0.195,-0.416282640611024,0.041717221802736,0.0636018360925155,0
1098.51111111111,-0.19,-0.444792451189785,0.0456938517894214,0.0636105699831582,0
1098.51388888889,-0.195,-0.474190453689802,0.0498086935638651,0.0636187940172585,0
1098.51666666667,-0.19,-0.501881021137816,0.0538633369260627,0.063626460613982,0
1098.51944444444,-0.185,-0.52462583206449,0.0576397485735842,0.0636335881528285,0
1098.52222222222,-0.195,-0.538755743584381,0.0609125272351523,0.0636402273546894,0
1098.525,-0.19,-0.540443451788607,0.0634626710014202,0.0636465705570982,0
1098.52777777778,-0.18,-0.526017758961466,0.0650919911604631,0.0636528749411266,0
1098.53055555556,-0.185,-0.492295548273865,0.0656372085522307,0.06365917917465,0
1098.53333333333,-0.185,-0.436904691822389,0.0653710863865357,0.0636655244025739,0
1098.53611111111,-0.16,-0.358570408520945,0.0664363454644311,0.0636719507462854,0
1098.53888888889,-0.095,-0.257339186758911,0.0687082209230309,0.0636784919302238,0
1098.54166666667,0.005,-0.134718238807749,0.0720043613131375,0.0636851538938663,0
1098.54444444444,0.14,0.00628569131048331,0.0761000842612569,0.0636919172427714,0
1098.54722222222,0.325,0.161236918307377,0.0807465621105794,0.0636987418671636,0
1098.55,0.525,0.324451135725448,0.0856904166055188,0.0637055729342839,0
1098.55277777778,0.735,0.489277059896989,0.0906930791683,0.0637123473231882,0
1098.55555555556,0.91,0.648462659694324,0.0955482921711926,0.0637189999793603,0
1098.55833333333,1.085,0.794582009764241,0.100096286383007,0.0637254683345325,0
1098.56111111111,1.255,0.92049331360463,0.10423345756068,0.0637316945697625,0
1098.56388888889,1.415,1.01979537569762,0.107916756646705,0.0637376253798305,0
1098.56666666667,1.555,1.08724907250091,0.11116246955088,0.063743209173277,0
1098.56944444444,1.655,1.1191322867588,0.113044678572053,0.0637483157279407,1
1098.57222222222,1.685,1.11350121553717,0.113337633742053,0.0637527066198103,0
1098.575,1.645,1.07033761451282,0.112013931655975,0.0637563035318103,0
1098.57777777778,1.54,0.991569887120835,0.109495145951793,0.0637590614418544,0
1098.58055555556,1.385,0.880965309296619,0.106818968841307,0.0637609413715775,0
1098.58333333333,1.16,0.743900349541012,0.103877456986079,0.0637619188509279,0
1098.58611111111,0.875,0.587025221911159,0.100604423740138,0.0637619440465984,0
1098.58888888889,0.57,0.417846754923739,0.0969862551598378,0.0637610933268525,0
1098.59166666667,0.3,0.244259730024323,0.0930677745942947,0.0637594342286463,0
1098.59444444444,0.085,0.0740605504404216,0.0889525610850936,0.0637570219283178,0
1098.59722222222,-0.035,-0.0855218491502219,0.0847976161661303,0.0637538965470711,0
1098.6,-0.105,-0.228244624229394,0.0808027741570646,0.0637500814719883,0
1098.60277777778,-0.135,-0.349190209244028,0.0771957187083695,0.0637455827898994,0
1098.60555555556,-0.14,-0.445003591669316,0.0742138620328696,0.0637403898458621,0
1098.60833333333,-0.145,-0.514013346110474,0.0720846282744026,0.0637344859153202,0
1098.61111111111,-0.155,-0.556231256728068,0.0710058336938313,0.0637281123276561,0
1098.61388888889,-0.185,-0.573234752683281,0.0708838069447233,0.063721523729431,0
1098.61666666667,-0.235,-0.567945254803098,0.0694724901462559,0.0637149668260973,0
1098.61944444444,-0.295,-0.544323169245176,0.0667575376770544,0.0637086627218,0
1098.62222222222,-0.355,-0.507006065095625,0.0630935050062326,0.0637028097188718,0
1098.625,-0.37,-0.460920099109671,0.0587172170805369,0.0636975145139377,0
1098.62777777778,-0.38,-0.410895760941481,0.0538862254112742,0.0636925560191314,0
1098.63055555556,-0.37,-0.361317479924162,0.0488627374988222,0.0636877259718506,0
1098.63333333333,-0.36,-0.315832747519453,0.0438982470570847,0.0636828463166276,0
1098.63611111111,-0.36,-0.277140550372052,0.0392198286025517,0.0636777836479253,0
1098.63888888889,-0.355,-0.24687161856504,0.0350188972842826,0.0636724600169284,0
1098.64166666667,-0.355,-0.22556492273681,0.0314430223147849,0.0636668582228972,0
1098.64444444444,-0.36,-0.212736704233312,0.0285911377311934,0.0636610205153193,0
1098.64722222222,-0.355,-0.207030786425571,0.0265122369867252,0.0636550402213597,0
1098.65,-0.385,-0.20643261500425,0.0252073877830292,0.0636491215614871,0
1098.65277777778,-0.395,-0.208524910501747,0.0246346790170659,0.0636435275932025,0
1098.65555555556,-0.39,-0.210760324370537,0.0247165284195764,0.0636383786868148,0
1098.65833333333,-0.38,-0.210726218585393,0.0249838562768297,0.0636337716576554,0
1098.66111111111,-0.385,-0.206378588215011,0.024416001998966,0.0636297600829868,0
1098.66388888889,-0.385,-0.196225978304578,0.0232047726586651,0.0636260823986082,0
1098.66666666667,-0.38,-0.179449609083343,0.0216668698456271,0.0636223887678949,0
1098.66944444444,-0.375,-0.15595229155703,0.0200684425547845,0.0636180277552593,0
1098.67222222222,-0.37,-0.126335489468001,0.0185075688678336,0.0636128879997878,0
1098.675,-0.365,-0.0918104450655567,0.0170610372657034,0.063607054614021,0
1098.67777777778,-0.375,-0.0540550537047167,0.0157821427401256,0.0636006413450724,0
1098.68055555556,-0.375,-0.015032652740979,0.0147761977747248,0.0635937878879887,0
1098.68333333333,-0.39,0.0232082793495004,0.0141831647262732,0.0635791708748806,0
1098.68611111111,-0.41,0.0587335401852103,0.0139803938939142,0.0635560398868131,0
1098.68888888889,-0.41,0.0899026677191862,0.0140992647626356,0.0635325480489147,0
1098.69166666667,-0.415,0.115512024123844,0.0144349966887483,0.0635075645337012,0
1098.69444444444,-0.42,0.134889152751862,0.0147149410830766,0.0634799497122036,0
1098.69722222222,-0.415,0.147931158492391,0.0149357250781771,0.0634485959213268,0
1098.7,-0.405,0.155085469992265,0.0151284668953889,0.0634124700371919,0
1098.70277777778,-0.41,0.15727692327309,0.0150241840576301,0.0633706569390521,0
1098.70555555556,-0.395,0.155790138865239,0.014811069154808,0.0633220774503453,0
1098.70833333333,-0.4,0.152120192131485,0.0145728503780785,0.0632641870485531,0
1098.71111111111,-0.385,0.147807248035742,0.0143109181615899,0.0631968638975188,0
1098.71388888889,-0.405,0.144271932092808,0.0140340180517429,0.0631296969756696,0
1098.71666666667,-0.42,0.142667676187163,0.0137559797531685,0.0630731232889202,0
1098.71944444444,-0.435,0.143764203997551,0.0134930594213543,0.0630286012139663,0
1098.72222222222,-0.44,0.147872941420685,0.0132612156977192,0.0629960806080359,0
1098.725,-0.46,0.154820805785773,0.0130736227794725,0.0629755849154807,0
1098.72777777778,-0.455,0.163973978786434,0.0129386786253557,0.0629671065406542,0
1098.73055555556,-0.455,0.174308376065024,0.0128586991314974,0.0629704711989203,0
1098.73333333333,-0.46,0.184519058998039,0.0128294073907482,0.062984870983574,0
1098.73611111111,-0.475,0.193157208724745,0.0128402395212696,0.0630087384085522,0
1098.73888888889,-0.475,0.198780827209031,0.0128754036572274,0.0630405314484281,0
1098.74166666667,-0.475,0.200104255284409,0.0129155544699144,0.0630786636314793,0
1098.74444444444,-0.49,0.196131977555819,0.0129398885579814,0.0631198749857991,0
1098.74722222222,-0.51,0.186263952859739,0.0129513463239761,0.0631600091687281,0
1098.75,-0.53,0.170362669611593,0.0130155065919188,0.0631940450633491,0
1098.75277777778,-0.54,0.14877597070813,0.0131442577203913,0.0632202455601957,0
1098.75555555556,-0.56,0.122314036964343,0.0133429801682592,0.0632381278362919,0
1098.75833333333,-0.575,0.0921833352261125,0.0136096750420712,0.0632484679425395,0
1098.76111111111,-0.585,0.0598844022477954,0.0138591626867652,0.0632601612307057,0
1098.76388888889,-0.595,0.0270836647864686,0.0139427357258785,0.063276826514289,0
1098.76666666667,-0.605,-0.00452821557985234,0.0138498747015424,0.0633004538559748,0
1098.76944444444,-0.595,-0.0333779377919397,0.0135976697187157,0.0633331652205938,0
1098.77222222222,-0.61,-0.0581378337148703,0.0132545939199118,0.0633771659082174,0
1098.775,-0.62,-0.0778290941280091,0.0129760605186302,0.0634346739303614,0
1098.77777777778,-0.62,-0.0918908598113124,0.0127882659504143,0.063507831674606,0
1098.78055555556,-0.625,-0.100209544879111,0.0127130214871231,0.0635986063246198,0
1098.78333333333,-0.63,-0.103106686713878,0.012766118877991,0.0637086845592909,0
1098.78611111111,-0.645,-0.10128762709218,0.0126822475220776,0.0638393752563299,0
1098.78888888889,-0.65,-0.0957570325880866,0.012354256134826,0.063991522335192,0
1098.79166666667,-0.65,-0.0877103057666408,0.0118950889829926,0.0641636645266031,0
1098.79444444444,-0.64,-0.0784120388355374,0.0113185458170369,0.0643448361681992,0
1098.79722222222,-0.625,-0.0690736315893452,0.0106443996591126,0.0645234846329058,0
1098.8,-0.605,-0.0607419620828314,0.00989693906868304,0.0646973095708279,0
1098.80277777778,-0.595,-0.0542096065254109,0.00910328314651075,0.0648657671829286,0
1098.80555555556,-0.58,-0.049954711866072,0.00829161965300203,0.0650284198498932,0
1098.80833333333,-0.55,-0.0481154833673853,0.00748951169679034,0.0651849339388475,0
1098.81111111111,-0.535,-0.0485006824806632,0.00672240042161975,0.0653350779321662,0
1098.81388888889,-0.51,-0.0506338967765118,0.00601240259771866,0.0654787216380665,0
1098.81666666667,-0.5,-0.0538260040249582,0.005377466508382,0.0656158368595286,0
1098.81944444444,-0.465,-0.0572675330737964,0.00495424507003696,0.0657465010881327,0
1098.82222222222,-0.45,-0.0601307854843459,0.00483011854009639,0.0658708980011835,0
1098.825,-0.425,-0.0616707938914473,0.00497879786558891,0.0659893191548555,0
1098.82777777778,-0.4,-0.0613145194256632,0.0052260675902612,0.0661024780821252,0
1098.83055555556,-0.38,-0.0587290835806876,0.00537534234718308,0.0662018545187736,0
1098.83333333333,-0.345,-0.0538621364899378,0.00543243827473769,0.0662924658692843,0
1098.83611111111,-0.32,-0.0469504413259559,0.00540503861861638,0.0663807502247716,0
1098.83888888889,-0.295,-0.0384960967101837,0.00530203912392146,0.0664719694491759,0
1098.84166666667,-0.275,-0.029213185474863,0.00513302026561768,0.0665630898234568,0
1098.84444444444,-0.255,-0.0199506893252891,0.00490787182988163,0.0666507089557036,0
1098.84722222222,-0.23,-0.011599939689107,0.00488573223496539,0.0667317743754255,0
1098.85,-0.225,-0.00499644445696677,0.0050663713557398,0.0668040108846286,0
1098.85277777778,-0.22,-0.000826485427167685,0.00540006737112547,0.0668660349769411,0
1098.85555555556,-0.22,0.000451628395207892,0.00574997175137909,0.0669170790263201,0
1098.85833333333,-0.21,-0.00133671557608933,0.0061060101261465,0.066956915901494,0
1098.86111111111,-0.2,-0.00605573127561177,0.00645806539712909,0.0669857630397954,0
1098.86388888889,-0.19,-0.0132645735496609,0.00679609747455337,0.0670041755674141,0
1098.86666666667,-0.19,-0.0222544551868553,0.00711037450786165,0.0670129377145191,0
1098.86944444444,-0.185,-0.0321140176416828,0.00736724333068921,0.0670129674670547,0
1098.87222222222,-0.16,-0.0418165263622123,0.00742953555618283,0.0670101166294095,0
1098.875,-0.18,-0.0503202032657978,0.00728719456488633,0.0670086137402425,0
1098.87777777778,-0.185,-0.0566716251658373,0.0071455839029562,0.0670084810312357,0
1098.88055555556,-0.18,-0.0601017477815414,0.00705763464285168,0.0670097063031764,0
1098.88333333333,-0.18,-0.0601047987026166,0.00702255705729606,0.0670121993178187,0
1098.88611111111,-0.2,-0.0564919522958488,0.00703667342545343,0.0670157932747471,0
1098.88888888889,-0.21,-0.0494141892947041,0.00709347758133749,0.0670203707087411,0
1098.89166666667,-0.205,-0.0393518057352418,0.00718390333067867,0.0670258255352351,0
1098.89444444444,-0.22,-0.0270713644120382,0.00729679199061148,0.0670320515039012,0
1098.89722222222,-0.19,-0.0135541442953369,0.00741952719358966,0.0670389036073336,0
1098.9,-0.18,9.69876119963294e-05,0.00741545181095412,0.0670462355080769,0
1098.90277777778,-0.165,0.0127631702678501,0.00731289723973268,0.0670539113187649,0
1098.90555555556,-0.16,0.0234172126408916,0.00723939743904769,0.0670617968303614,0
1098.90833333333,-0.15,0.031222682968675,0.00720573595549146,0.0670698026811236,0
1098.91111111111,-0.155,0.0356145933529655,0.0072205915165916,0.0670780347007932,0
1098.91388888889,-0.165,0.0363536516961169,0.00729019723748487,0.0670866040601708,0
1098.91666666667,-0.16,0.0335486657281089,0.00741821897217095,0.0670956238968456,0
1098.91944444444,-0.17,0.0276448496553676,0.00760584981136163,0.0671052001778757,0
1098.92222222222,-0.17,0.0193791884011601,0.00785209242493363,0.067115422921334,0
1098.925,-0.175,0.0097073175750223,0.00815417861077263,0.0671263573729022,0
1098.92777777778,-0.185,-0.000290752581797426,0.00825889702907895,0.0671380396957749,0
1098.93055555556,-0.17,-0.00951659454483183,0.00817160271084306,0.0671505664458524,0
1098.93333333333,-0.165,-0.0169603247126824,0.00792017813983067,0.0671639284847762,0
1098.93611111111,-0.165,-0.0217977594214253,0.00755211211410817,0.0671781188034436,0
1098.93888888889,-0.16,-0.0234679172962918,0.00712963345911275,0.0671931331889302,0
1098.94166666667,-0.16,-0.0217229841621912,0.006723148336299,0.0672089703458927,0
1098.94444444444,-0.16,-0.0166456361080068,0.00640362180572785,0.067225631509371,0
1098.94722222222,-0.16,-0.0086319374939428,0.00623466420447296,0.0672431196219446,0
1098.95,-0.165,0.00165843623278871,0.00626512831902545,0.0672614314777825,0
1098.95277777778,-0.16,0.0133795108592228,0.0065229885859649,0.0672805516855299,0
1098.95555555556,-0.155,0.0255958180687047,0.00701116083568586,0.0673004520380948,0
1098.95833333333,-0.165,0.0373885343052739,0.00751229301747594,0.0673210331475019,0
1098.96111111111,-0.155,0.047959692714566,0.00795629675004821,0.0673421959288764,0
1098.96388888889,-0.135,0.0567232430249721,0.00832180740486518,0.0673638026967296,0
1098.96666666667,-0.135,0.0633729235626232,0.00858609057601934,0.0673856783559799,0
1098.96944444444,-0.115,0.067919151334927,0.00872630412053268,0.0674075748793462,0
1098.97222222222,-0.09,0.0706902223350302,0.00872108059006906,0.0674292257407049,0
1098.975,-0.065,0.0722967489122811,0.00855231828583272,0.0674503737573283,0
1098.97777777778,-0.045,0.0735620880341153,0.0085639902776922,0.0674708260424815,0
1098.98055555556,-0.02,0.07542515137985,0.0089767647879493,0.0674904317555054,0
1098.98333333333,-0.015,0.0788250646491403,0.00968527293321872,0.0675090760637712,0
1098.98611111111,-0.02,0.0845793365857901,0.0105630195616073,0.0675267225357398,0
1098.98888888889,-0.02,0.0932682662355955,0.0115892147714007,0.0675434290331724,0
1098.99166666667,-0.005,0.10513812436113,0.0127340567036997,0.067559303854648,0
1098.99444444444,0.03,0.120034177946189,0.013959994943247,0.0675744996203353,0
1098.99722222222,0.055,0.13737199718611,0.0152237641311238,0.0675892019512522,0
1099,0.1,0.156151921503447,0.0164790832933121,0.0676036210127736,0
1099.00277777778,0.14,0.175017391747346,0.0176798416722993,0.0676180013324273,0
1099.00555555556,0.155,0.192353474536955,0.0187835274132032,0.0676326595473992,0
1099.00833333333,0.15,0.206417737484662,0.0197546084913021,0.0676479081064667,0
1099.01111111111,0.125,0.215492097064251,0.0205675518290611,0.0676638723317704,0
1099.01388888889,0.105,0.218041720409248,0.0212091708924801,0.0676805370532873,0
1099.01666666667,0.085,0.21286579793658,0.0216800261001138,0.0676978384919345,0
1099.01944444444,0.07,0.199225179264257,0.0219946653674679,0.0677157026091435,0
1099.02222222222,0.08,0.176933509917344,0.0221805805002818,0.0677340511393543,0
1099.025,0.09,0.146401509639891,0.0222758627545305,0.0677527988416187,0
1099.02777777778,0.1,0.108628149941817,0.0223256592684724,0.0677718515326675,0
1099.03055555556,0.085,0.0651373601784159,0.0223776512037986,0.0677911052614297,0
1099.03333333333,0.07,0.017864076605111,0.0224768834815251,0.0678104508590552,0
1099.03611111111,0.05,-0.0310015370527981,0.0226603642884771,0.0678298870777195,0
1099.03888888889,0.015,-0.0791985089928308,0.0229519105198627,0.0678493962571992,0
1099.04166666667,-0.005,-0.12459166039275,0.0233577355372779,0.0678689386362728,0
1099.04444444444,-0.035,-0.16536209718937,0.0238632534507197,0.0678885362201859,0
1099.04722222222,-0.075,-0.200173128991888,0.0244315084216527,0.0679082757989957,0
1099.05,-0.1,-0.228294713559202,0.0250035308381186,0.0679282283480923,0
1099.05277777778,-0.1,-0.249672737398458,0.0255007809929563,0.0679484457934518,0
1099.05555555556,-0.12,-0.264934064997085,0.0258296748774273,0.0679689604805762,0
1099.05833333333,-0.15,-0.275323942872189,0.0257713413382639,0.0679897859049844,0
1099.06111111111,-0.155,-0.282578545069527,0.0260864294789278,0.0680109563581787,0
1099.06388888889,-0.17,-0.288741643712028,0.0268694754499985,0.0680325718964297,0
1099.06666666667,-0.2,-0.295940014552996,0.0281973345233502,0.0680546699808817,0
1099.06944444444,-0.195,-0.306136710327261,0.0301201817183007,0.0680772147178259,0
1099.07222222222,-0.195,-0.320884304506862,0.0326536275830753,0.0681001445430933,0
1099.075,-0.195,-0.34110130149353,0.0357726776006603,0.0681233735304516,0
1099.07777777778,-0.19,-0.366893961443632,0.0394081726188886,0.0681467868488972,0
1099.08055555556,-0.195,-0.39744281126601,0.0434461997914189,0.0681702621092075,0
1099.08333333333,-0.185,-0.430968300999722,0.047730767463142,0.0681936548407928,0
1099.08611111111,-0.195,-0.464783777946387,0.0520698062875947,0.0682168245423015,0
1099.08888888889,-0.19,-0.495436690971606,0.0562443091331802,0.0682397130078029,0
1099.09166666667,-0.2,-0.518931305041489,0.0600201727853859,0.0682622632447251,0
1099.09444444444,-0.195,-0.531018851036145,0.0631620746740682,0.0682844291571462,0
1099.09722222222,-0.2,-0.527534601199217,0.0654485267099915,0.0683062085121784,0
1099.1,-0.195,-0.504756426447642,0.0666871123896214,0.0683276070777227,0
1099.10277777778,-0.18,-0.459756423939677,0.0667288455202275,0.0683486340635647,0
1099.10555555556,-0.175,-0.390716510535024,0.0675520524736355,0.0683693064967487,0
1099.10833333333,-0.14,-0.297180582183386,0.0696215851099362,0.0683896529508606,0
1099.11111111111,-0.075,-0.180219862341521,0.0727585898495929,0.0684096963096443,0
1099.11388888889,0.015,-0.042494128258252,0.076739761944043,0.068429446263179,0
1099.11666666667,0.16,0.111800840928276,0.0813157971289215,0.0684487898682158,0
1099.11944444444,0.35,0.27710060087169,0.0862312797954875,0.0684676203106334,0
1099.12222222222,0.56,0.446746214751577,0.091244349799207,0.0684858473604651,0
1099.125,0.775,0.613348777457325,0.0961445173167699,0.068503405723233,0
1099.12777777778,0.98,0.769220391781824,0.100767161061354,0.0685202605372415,0
1099.13055555556,1.165,0.906842022263103,0.105003535663584,0.0685364071530881,0
1099.13333333333,1.35,1.01933520087415,0.10880550434133,0.0685518664097291,0
1099.13611111111,1.52,1.10090363751455,0.112184669686323,0.0685666758707273,0
1099.13888888889,1.625,1.14721250009892,0.114965766203555,0.0685808779275059,0
1099.14166666667,1.68,1.15567736308383,0.116165790806175,0.0685944682981479,1
1099.14444444444,1.65,1.1256412627925,0.115717519108063,0.0686073426896416,0
1099.14722222222,1.575,1.05842644549881,0.113640323149659,0.0686193896823511,0
1099.15,1.43,0.957256612274504,0.110790495032635,0.0686304985782467,0
1099.15277777778,1.225,0.82705502735585,0.107663835681188,0.0686405561721444,0
1099.15555555556,0.965,0.674133010007706,0.104189624630838,0.0686494481940121,0
1099.15833333333,0.665,0.50579135272719,0.100348855788064,0.0686573601476272,0
1099.16111111111,0.38,0.329863472796947,0.0961807162142157,0.0686645325277036,0
1099.16388888889,0.17,0.15423312505391,0.091783663800951,0.0686712355584485,0
1099.16666666667,0.01,-0.0136390204856811,0.0873109460485985,0.0686776845679224,0
1099.16944444444,-0.08,-0.167146796975569,0.0829608835593874,0.0686840126587708,0
1099.17222222222,-0.12,-0.300898502700094,0.0789626956095712,0.0686903483411014,0
1099.175,-0.135,-0.410981843699563,0.0755590324731932,0.0686968017965158,0
1099.17777777778,-0.15,-0.495117892536223,0.0729866670591993,0.0687034588523759,0
1099.18055555556,-0.17,-0.552696780763769,0.0714569625471593,0.0687103748344366,0
1099.18333333333,-0.22,-0.584696904026478,0.071192382035477,0.0687175669815524,0
1099.18611111111,-0.28,-0.593498134637424,0.070191928851141,0.0687249654489734,0
1099.18888888889,-0.33,-0.582607221679498,0.0679160795488412,0.0687324598340755,0
1099.19166666667,-0.345,-0.556319623029573,0.0646218984126527,0.0687399256865225,0
1099.19444444444,-0.355,-0.519346009406471,0.0605377012214213,0.0687472388423893,0
1099.19722222222,-0.355,-0.476433336660371,0.0559177948939304,0.0687542833382074,0
1099.2,-0.35,-0.432009624358572,0.051025964040284,0.068760960035009,0
1099.20277777778,-0.355,-0.38987853046336,0.0461193773395538,0.0687671945197574,0
1099.20555555556,-0.35,-0.352984782575836,0.0414339566087192,0.0687729454846552,0
1099.20833333333,-0.35,-0.323264980438458,0.037172098635951,0.0687782086226756,0
1099.21111111111,-0.355,-0.301590800501849,0.0334934294391663,0.0687830178962693,0
1099.21388888889,-0.36,-0.287803852845768,0.0305090204650926,0.0687874433222307,0
1099.21666666667,-0.36,-0.280834013211188,0.0282792266925747,0.0687915850431924,0
1099.21944444444,-0.375,-0.278886581475979,0.0268150387537698,0.0687955637591155,0
1099.22222222222,-0.385,-0.279678609622107,0.0260825952436213,0.0687995079228504,0
1099.225,-0.4,-0.280701567567695,0.0260102950907072,0.0688035390213005,0
1099.22777777778,-0.385,-0.279486380040699,0.0264977971605987,0.0688077552441763,0
1099.23055555556,-0.385,-0.273847799765858,0.026675006889879,0.0688122097241163,0
1099.23333333333,-0.385,-0.262087933392913,0.0261038707178503,0.0688169008527713,0
1099.23611111111,-0.385,-0.243143199542006,0.0249834549037017,0.0688217643963564,0
1099.23888888889,-0.375,-0.216664637017235,0.0235254373230649,0.068826377132491,0
1099.24166666667,-0.365,-0.183027771408168,0.0220507023701551,0.0688309230558143,0
1099.24444444444,-0.365,-0.143274624859334,0.0206797189352783,0.0688357372884737,0
1099.24722222222,-0.36,-0.0989963605300212,0.0194652877086421,0.0688412056464214,0
1099.25,-0.37,-0.0521699907468908,0.0184451889729504,0.0688477467748438,0
1099.25277777778,-0.385,-0.0049661452705005,0.0177894380993572,0.0688508630479597,0
1099.25555555556,-0.39,0.0404531763259493,0.0175007606169163,0.0688420260987187,0
1099.25833333333,-0.415,0.0821277749372653,0.0175336806400202,0.0688188552187186,0
1099.26111111111,-0.42,0.118465801370507,0.0178021627529399,0.0687793691739946,0
1099.26388888889,-0.425,0.148369220198706,0.0181359006199713,0.0687221763480046,0
1099.26666666667,-0.425,0.171308010836505,0.0184413638879865,0.0686466894630643,0
1099.26944444444,-0.415,0.18733800594356,0.0186703233325662,0.0685532140288621,0
1099.27222222222,-0.41,0.197062655604654,0.0186287935761994,0.0684430350712022,0
1099.275,-0.405,0.201544210617444,0.0182297473486944,0.068318448596703,0
1099.27777777778,-0.405,0.202174373525079,0.0177724998441736,0.0681827311173119,0
1099.28055555556,-0.42,0.200517974857665,0.0172604858190011,0.0680400444663199,0
1099.28333333333,-0.44,0.198145400573879,0.0167053355209563,0.0678952275447578,0
1099.28611111111,-0.445,0.196470158258806,0.016124419215488,0.0677518458760107,0
1099.28888888889,-0.465,0.196607097061124,0.015538012877213,0.067603934126501,0
1099.29166666667,-0.485,0.199264501663531,0.014966442898564,0.0674460765003399,0
1099.29444444444,-0.5,0.204679802328826,0.0144275439159882,0.0672736656797038,0
1099.29722222222,-0.5,0.21260432263342,0.0139347070606971,0.0670830940275492,0
1099.3,-0.5,0.2223377356433,0.0134957132039639,0.0668718637696115,0
1099.30277777778,-0.495,0.23280816193334,0.0131124464369494,0.0666386096490008,0
1099.30555555556,-0.51,0.242689554651369,0.0127814777558112,0.0663830348901652,0
1099.30833333333,-0.525,0.250544566071175,0.0124954086241726,0.0661057685882935,0
1099.31111111111,-0.545,0.254978783411379,0.0122447788751041,0.0658081592242464,0
1099.31388888889,-0.545,0.254791257636078,0.0120202816688421,0.0654920243185515,0
1099.31666666667,-0.57,0.249106701416272,0.0119164947748868,0.0651593798126689,0
1099.31944444444,-0.585,0.237476545621507,0.0120616856543725,0.064812174282684,0
1099.32222222222,-0.6,0.219939038655738,0.0122305025051054,0.064456474077697,0
1099.325,-0.615,0.197032464965485,0.0123698152214628,0.064099348947582,0
1099.32777777778,-0.63,0.169759984446148,0.0124636295968233,0.063747988197417,0
1099.33055555556,-0.625,0.139509144043837,0.0124812031217931,0.063407703430933,0
1099.33333333333,-0.615,0.107933369062144,0.0125457703235247,0.0630792013540316,0
1099.33611111111,-0.62,0.0768063162691383,0.0127277561614737,0.0627636746818137,0
1099.33888888889,-0.61,0.0478625395030847,0.0130512092344625,0.0624626156429051,0
1099.34166666667,-0.6,0.0226392493132641,0.0135354667814994,0.0621775812160382,0
1099.34444444444,-0.595,0.00233392223807097,0.0141924473823511,0.0619099339393902,0
1099.34722222222,-0.59,-0.0123088635822079,0.0150244652416927,0.0616605818183101,0
1099.35,-0.58,-0.0210705959662779,0.016022826033093,0.0614297423100487,0
1099.35277777778,-0.585,-0.024284826645771,0.0171673933622625,0.061216753541046,0
1099.35555555556,-0.57,-0.0228130915576838,0.0184142895747444,0.0610199520296531,0
1099.35833333333,-0.56,-0.0179723931449619,0.0193572805764144,0.0608366305800385,0
1099.36111111111,-0.545,-0.0114203058062933,0.0199188860243047,0.0606630831686036,0
1099.36388888889,-0.535,-0.00500766274814482,0.0200520737373469,0.0604947693923545,0
1099.36666666667,-0.5,-0.000611803547615546,0.0197449543951886,0.0603273438092594,0
1099.36944444444,-0.47,3.47674788259142e-05,0.0190222107538451,0.0601664285340075,0
1099.37222222222,-0.435,-0.00449508597379545,0.0180150615360134,0.0600176989374335,0
1099.375,-0.42,-0.0151879759396131,0.0171843807615853,0.0598852505277912,0
1099.37777777778,-0.385,-0.0324926353608827,0.0165428302557199,0.0597721336727301,0
1099.38055555556,-0.355,-0.0562695172348333,0.0160895454752358,0.0596802669394027,0
1099.38333333333,-0.33,-0.0857923809495712,0.0158107802309957,0.0596104215808626,0
1099.38611111111,-0.335,-0.119802291588507,0.0156818796109323,0.059562273591024,0
1099.38888888889,-0.32,-0.156609765958921,0.0156704461915644,0.0595345154848108,0
1099.39166666667,-0.295,-0.194236435845039,0.015740440518992,0.0595250164620645,0
1099.39444444444,-0.275,-0.230583951782315,0.0158568512921359,0.0595307592461668,0
1099.39722222222,-0.255,-0.263615247050551,0.0158889953315983,0.0595341233245027,0
1099.4,-0.245,-0.291531960834137,0.0157570293143037,0.0595357462504437,0
1099.40277777778,-0.23,-0.312931911478129,0.0156317536497913,0.0595362836521246,0
1099.40555555556,-0.21,-0.326932024245791,0.0155019196045895,0.0595363710216056,0
1099.40833333333,-0.205,-0.333244939166166,0.0153614342883723,0.0595365876367066,0
1099.41111111111,-0.195,-0.332201426080973,0.0155566559410709,0.0595371589884118,0
1099.41388888889,-0.185,-0.324715393557695,0.015931012071933,0.0595375272055909,0
1099.41666666667,-0.185,-0.312193305434788,0.0165057906245135,0.0595372388484901,0
1099.41944444444,-0.2,-0.296394787302773,0.0173492180086117,0.0595360339883387,0
1099.42222222222,-0.2,-0.279255689195915,0.0185246933482953,0.0595338073597454,0
1099.425,-0.205,-0.26268848010256,0.0200831153107173,0.0595304904092312,0
1099.42777777778,-0.195,-0.248377263443951,0.0220553474196205,0.0595260434653049,0
1099.43055555556,-0.19,-0.237585695564479,0.0244454943069684,0.0595204486236102,0
1099.43333333333,-0.185,-0.230995552463814,0.0272256423793368,0.0595137615061897,0
1099.43611111111,-0.165,-0.228591640231315,0.0303326440098162,0.0595061523220845,0
1099.43888888889,-0.155,-0.229605324142493,0.0336673981775312,0.0594978019453512,0
1099.44166666667,-0.14,-0.2325244172103,0.0370969104061454,0.0594888843064098,0
1099.44444444444,-0.145,-0.235171872957599,0.0404592126919894,0.0594795713223055,0
1099.44722222222,-0.155,-0.23485008792737,0.0435710046560681,0.0594701923079139,0
1099.45,-0.15,-0.228542088972669,0.0462376570870851,0.059461174675525,0
1099.45277777778,-0.14,-0.213155907725046,0.0481930492327182,0.0594524205947608,0
1099.45555555556,-0.13,-0.185794439734395,0.0488840278432674,0.0594433946836753,0
1099.45833333333,-0.115,-0.144030386174277,0.048651250334634,0.0594336376397952,0
1099.46111111111,-0.1,-0.0861647194495014,0.0495085203644053,0.0594240019043428,0
1099.46388888889,-0.07,-0.0114476188245249,0.0515218413970344,0.0594227199253803,0
1099.46666666667,-0.02,0.0797570229726033,0.0546993655951154,0.0594324978812169,0
1099.46944444444,0.015,0.185878757076105,0.0589862890262608,0.0594558748402006,0
1099.47222222222,0.065,0.304129721060907,0.0642634493792855,0.0594950481014863,0
1099.475,0.14,0.430580284282085,0.0703499114237742,0.0595516913124625,0
1099.47777777778,0.175,0.560319450414058,0.0770095616246246,0.0596267848755714,0
1099.48055555556,0.235,0.687692018827454,0.0838915505771728,0.0597204734204436,0
1099.48333333333,0.3,0.806598735760922,0.0906222061763036,0.0598319627034485,0
1099.48611111111,0.35,0.910840815486866,0.0970243460895215,0.0599594672336115,0
1099.48888888889,0.42,0.994486650906736,0.102936983183113,0.0601002159388841,0
1099.49166666667,0.505,1.05223653621529,0.107873307139796,0.0602505205607005,0
1099.49444444444,0.61,1.07976094844449,0.111567186056863,0.0604059045949889,1
1099.49722222222,0.695,1.07398940807195,0.113806327182194,0.0605612902716017,0
1099.5,0.735,1.03333005907657,0.114445267590238,0.0607165025917383,0
1099.50277777778,0.705,0.957804651023466,0.113414763054976,0.060876624370768,0
1099.50555555556,0.57,0.849089240185763,0.11094967481944,0.0610462406701022,0
1099.50833333333,0.34,0.710457244023938,0.108910744754049,0.0612292530162271,0
1099.51111111111,-0.03,0.546628025906749,0.107234348390811,0.0614287482654501,0
1099.51388888889,-0.47,0.363530483515912,0.105871507017246,0.061646873093696,0
1099.51666666667,-0.955,0.167996715458753,0.104795144018142,0.0618847923305973,0
1099.51944444444,-1.36,-0.0325946480763242,0.104004681105058,0.0621428544625943,0
1099.52222222222,-1.675,-0.230702753518925,0.103527578178282,0.0624207276833,0
1099.525,-1.87,-0.419012266749541,0.103417685484642,0.0627175962800089,0
1099.52777777778,-2.005,-0.590800527493922,0.103750550129714,0.0630324110212577,0
1099.53055555556,-2.085,-0.740261921192436,0.104616078658024,0.0633639898714911,0
1099.53333333333,-2.17,-0.862770591035,0.106109182450945,0.0637073757847551,0
1099.53611111111,-2.23,-0.955067151660247,0.108319205223767,0.0640559728481514,0
1099.53888888889,-2.27,-1.01536047705366,0.110921001168021,0.0644026920050284,0
1099.54166666667,-2.3,-1.04334151225582,0.111952732575602,0.0647404245024812,0
1099.54444444444,-2.305,-1.04011197046138,0.111426631886985,0.0650645951091876,0
1099.54722222222,-2.29,-1.00803630056061,0.109427135201768,0.0653746017519127,0
1099.55,-2.24,-0.950530060990986,0.106103416956278,0.0656695914366023,0
1099.55277777778,-2.18,-0.871801496839569,0.101658684164524,0.0659485991187654,0
1099.55555555556,-2.105,-0.776565460592409,0.0963370027518461,0.0662107267903845,0
1099.55833333333,-1.99,-0.669749718939888,0.0904085502899915,0.066455339827359,0
1099.56111111111,-1.865,-0.556213135402985,0.0841542479377157,0.0666822606696272,0
1099.56388888889,-1.72,-0.440493306585095,0.0778507179815628,0.0668919411840631,0
1099.56666666667,-1.57,-0.32659815215206,0.0717564450432788,0.0670855956120303,0
1099.56944444444,-1.455,-0.217851989411177,0.066099896001234,0.0672652802347586,0
1099.57222222222,-1.365,-0.11680209410793,0.0610701867665062,0.0674340003467808,0
1099.575,-1.305,-0.0251870214668909,0.056880813020472,0.0675956250946255,0
1099.57777777778,-1.28,0.0560366012890106,0.0539104806869449,0.0677547843578185,0
1099.58055555556,-1.24,0.126616161104245,0.0522375971630435,0.0679121763789393,0
1099.58333333333,-1.18,0.186884649187465,0.0518849315567433,0.0680625963960508,0
1099.58611111111,-1.07,0.237614656153865,0.0525967062471678,0.0682008411587224,0
1099.58888888889,-0.94,0.279858823196497,0.0525205852397465,0.0683220837659053,0
1099.59166666667,-0.81,0.314790790352806,0.0517601103352078,0.068423559488023,0
1099.59444444444,-0.69,0.343559571775986,0.0504360246361683,0.0685036363714539,0
1099.59722222222,-0.6,0.367168218439364,0.0486773267172618,0.0685618079596698,0
1099.6,-0.555,0.386384813758441,0.0466129170305827,0.0685988110478011,0
1099.60277777778,-0.53,0.401690550472607,0.0443643308306922,0.0686163135919225,0
1099.60555555556,-0.53,0.413266148492986,0.0420399297352337,0.0686167144260243,0
1099.60833333333,-0.515,0.42101448701807,0.0397307845023039,0.0686028825825671,0
1099.61111111111,-0.48,0.424614312909476,0.0375083363143414,0.0685780386614212,0
1099.61388888889,-0.405,0.423597481701901,0.0354237841589037,0.0685455400997166,0
1099.61666666667,-0.295,0.417440558748941,0.0335090220161559,0.0685114580596257,0
1099.61944444444,-0.15,0.405660855548673,0.0317788498744571,0.0684776311308899,0
1099.62222222222,-0.025,0.387907122929214,0.0302341130670446,0.0684435845592679,0
1099.625,0.085,0.364036115112463,0.0288653882810114,0.0684091612351752,0
1099.62777777778,0.165,0.334167954426911,0.0276568322165604,0.0683748214575361,0
1099.63055555556,0.205,0.29871548708891,0.0265898379351369,0.0683410522039424,0
1099.63333333333,0.225,0.258385408209642,0.0256461997161321,0.0683081496815386,0
1099.63611111111,0.235,0.214151611610768,0.0248105631637281,0.0682761779474827,0
1099.63888888889,0.225,0.167203750871942,0.0240720255594058,0.0682451298608359,0
1099.64166666667,0.215,0.118876167131862,0.0234248437093016,0.0682149419647866,0
1099.64444444444,0.245,0.0705639700822695,0.0229258247231665,0.0681855106762345,0
1099.64722222222,0.27,0.0236340274041982,0.0225899910417057,0.0681567091084836,0
1099.65,0.29,-0.0206611378857735,0.0224178600918359,0.0681284012153407,0
1099.65277777778,0.315,-0.0612590206813269,0.0224243914100956,0.0681002082291928,0
1099.65555555556,0.335,-0.0973459911826794,0.0225653560268948,0.0680717886419065,0
1099.65833333333,0.33,-0.128394621829314,0.0225885962370162,0.068042972071407,0
1099.66111111111,0.35,-0.154176814229588,0.0224940687769509,0.0680138352916987,0
1099.66388888889,0.37,-0.174752283517845,0.0222864561285024,0.0679844335464682,0
1099.66666666667,0.39,-0.190434164615165,0.0219754700465938,0.0679548035648692,0
1099.66944444444,0.405,-0.201735497496515,0.0215755570544076,0.0679249841935373,0
1099.67222222222,0.43,-0.209301956301686,0.0211050436180529,0.0678952577033373,0
1099.675,0.44,-0.213837277705149,0.0205848165544402,0.067865816960513,0
1099.67777777778,0.47,-0.216028333843182,0.0200366806745973,0.0678367326775245,0
1099.68055555556,0.475,-0.216476655509234,0.0194815668283252,0.0678078761720462,0
1099.68333333333,0.49,-0.215642469392985,0.0189377770226995,0.0677791070791869,0
1099.68611111111,0.515,-0.213806048134969,0.0184194484341254,0.0677502874731642,0
1099.68888888889,0.525,-0.211049507156109,0.0179353958897368,0.0677212969448959,0
1099.69166666667,0.55,-0.207260273035171,0.0174884552547467,0.0676920463298712,0
1099.69444444444,0.58,-0.202155467940422,0.0170754018817152,0.0676624879120168,0
1099.69722222222,0.59,-0.19532457889394,0.0166874634987485,0.067632621653006,0
1099.7,0.61,-0.186286172035565,0.0163113907358133,0.0676024969574869,0
1099.70277777778,0.64,-0.174553206221114,0.0159309960092975,0.0675722088843726,0
1099.70555555556,0.665,-0.159700794779712,0.0155290273569483,0.0675418886146202,0
1099.70833333333,0.7,-0.141430110867559,0.0150892118537996,0.0675116894682447,0
1099.71111111111,0.725,-0.119622533183845,0.0148007353247202,0.0674816261435049,0
1099.71388888889,0.735,-0.0943790391493436,0.0148293662642927,0.0674517705353781,0
1099.71666666667,0.765,-0.0660411830659147,0.0151286777393486,0.0674222473301774,0
1099.71944444444,0.775,-0.0351916238689809,0.0156461268107835,0.0673929201088175,0
1099.72222222222,0.805,-0.00263394449204399,0.0163274116137025,0.0673636197928719,0
1099.725,0.82,0.030646723488898,0.0170630832348853,0.0673341518862627,0
1099.72777777778,0.835,0.0635391423797007,0.0177956058599855,0.0673043051884833,0
1099.73055555556,0.86,0.0948730292549583,0.0184934307437096,0.0672741279182142,0
1099.73333333333,0.87,0.123492364232599,0.0191220587741366,0.06724399740157,0
1099.73611111111,0.875,0.148329121627917,0.0196463503513868,0.0672142363886082,0
1099.73888888889,0.88,0.168471642149431,0.020032990461812,0.0671850638518381,0
1099.74166666667,0.89,0.183222387480746,0.0202529226248016,0.0671566573834473,0
1099.74444444444,0.88,0.192140765850876,0.0202835673577729,0.0671291338468495,0
1099.74722222222,0.885,0.195067997356884,0.0201106572848119,0.0671025357419714,0
1099.75,0.87,0.192132483818837,0.0197295504390816,0.0670768246181513,0
1099.75277777778,0.855,0.183735727766063,0.0191459231016332,0.0670518822238174,0
1099.75555555556,0.835,0.170520373585978,0.0183757903308389,0.0670276622999293,0
1099.75833333333,0.82,0.153323294376335,0.0174448523411671,0.0670042113811147,0
1099.76111111111,0.795,0.13311771342563,0.0163872141085798,0.0669815532905219,0
1099.76388888889,0.77,0.110949050295079,0.0152855008111547,0.0669596895915171,0
1099.76666666667,0.75,0.0878694729091576,0.0141748689442887,0.0669386026515306,0
1099.76944444444,0.71,0.0648760103022993,0.0130849966280991,0.0669182609798255,0
1099.77222222222,0.685,0.0428565632989777,0.0120502927064755,0.0668986262615087,0
1099.775,0.65,0.0225473024639734,0.0111073079398684,0.0668796607944706,0
1099.77777777778,0.6,0.00450385021516051,0.0102918707509406,0.0668613342363486,0
1099.78055555556,0.565,-0.0109125893699135,0.00963621029317567,0.0668436293636917,0
1099.78333333333,0.51,-0.0235342524405314,0.00916632515783377,0.0668265457861576,0
1099.78611111111,0.48,-0.0333722717660651,0.00889982859455841,0.0668100054424233,0
1099.78888888889,0.455,-0.0405908571520391,0.00884445384231334,0.0667938427303755,0
1099.79166666667,0.41,-0.0454732420497517,0.00879489166793014,0.066777907943994,0
1099.79444444444,0.39,-0.0483828857312182,0.0085636187727911,0.0667620725880976,0
1099.79722222222,0.345,-0.049723540114163,0.00817207133162612,0.0667462643981962,0
1099.8,0.305,-0.0499015905660649,0.00764717249809368,0.066730615308121,0
1099.80277777778,0.265,-0.049293596814455,0.00701954463897178,0.0667152189828889,0
1099.80555555556,0.225,-0.0482212529726285,0.0063216559566034,0.0667001139714233,0
1099.80833333333,0.2,-0.0469351312513226,0.00558602413116956,0.0666852702101935,0
1099.81111111111,0.18,-0.0456076581031509,0.00484358593016692,0.0666704938328196,0
1099.81388888889,0.14,-0.0443348813571145,0.00412232105729864,0.066656150548164,0
1099.81666666667,0.115,-0.0431458024407047,0.0034461929334843,0.0666426702506981,0
1099.81944444444,0.095,-0.0420174351943717,0.00283444096543274,0.0666303803669114,0
1099.82222222222,0.065,-0.0408933587879719,0.00230444863990053,0.0666195958544363,0
1099.825,0.02,-0.0397033807528276,0.00187957873389923,0.0666106685792752,0
1099.82777777778,-0.005,-0.0383820170619269,0.00155478694953834,0.0665935273593047,0
1099.83055555556,-0.02,-0.0368838065809929,0.00131875437259374,0.0665600997164964,0
1099.83333333333,-0.055,-0.0351939644872506,0.00115554810823484,0.0665086203399527,0
1099.83611111111,-0.07,-0.0333334861009508,0.00106391669713183,0.0664380625190821,0
1099.83888888889,-0.065,-0.0313584730637477,0.00104574637995433,0.0663482905792946,0
1099.84166666667,-0.07,-0.0293541000275785,0.00109138416014897,0.0662401669302606,0
1099.84444444444,-0.085,-0.0274242086857105,0.00114869324037471,0.066115576212745,0
1099.84722222222,-0.11,-0.0256779542373704,0.00121738183732985,0.0659772650992852,0
1099.85,-0.095,-0.0242151994595886,0.00130496272384818,0.0658289607657799,0
1099.85277777778,-0.115,-0.0231124337694469,0.00141427104079957,0.0656752460724929,0
1099.85555555556,-0.13,-0.0224108885250585,0.00154373933873715,0.0655213709516245,0
1099.85833333333,-0.14,-0.0221082433497409,0.0016880891449099,0.0653638017964555,0
1099.86111111111,-0.155,-0.0221549054943807,0.00183934245366305,0.0651969502477297,0
1099.86388888889,-0.15,-0.0224553412909609,0.00198803213031056,0.0650160350514422,0
1099.86666666667,-0.16,-0.0228743988700288,0.0021244783818426,0.0648173805709173,0
1099.86944444444,-0.17,-0.0232480395246093,0.00223999967624935,0.0645985415219671,0
1099.87222222222,-0.145,-0.0233974427559139,0.0023279400421741,0.0643581783986114,0
1099.875,-0.13,-0.0231451099964346,0.00238441869492155,0.0640958229982583,0
1099.87777777778,-0.13,-0.0223313948116374,0.00240873966597469,0.0638119320737846,0
1099.88055555556,-0.14,-0.020829848734091,0.00240343522006827,0.0635076870925194,0
1099.88333333333,-0.13,-0.0185598916559346,0.0023739537316574,0.0631847498438363,0
1099.88611111111,-0.145,-0.015495578502409,0.00232803686101771,0.0628449969811063,0
1099.88888888889,-0.15,-0.0116696110720716,0.00227485923729808,0.0624902580403477,0
1099.89166666667,-0.155,-0.00717219673230941,0.00222481480715186,0.0621231487881135,0
1099.89444444444,-0.165,-0.00214483934608326,0.00218826779497102,0.0617506632826373,0
1099.89722222222,-0.155,0.00323038394933614,0.00216748133753716,0.0613801050257291,0
1099.9,-0.15,0.00874509714951073,0.00217038441494348,0.0610188523888084,0
1099.90277777778,-0.165,0.0141811741786881,0.00219572151096113,0.0606705248159001,0
1099.90555555556,-0.15,0.0193280935082615,0.00222786285272719,0.0603365052107055,0
1099.90833333333,-0.15,0.0239995747369582,0.00227148365194864,0.0600184409948094,0
1099.91111111111,-0.15,0.0280480558297099,0.00233026634237864,0.0597180002259775,0
1099.91388888889,-0.165,0.0313757788531283,0.00240651409174955,0.0594366161800482,0
1099.91666666667,-0.175,0.0339415653999692,0.00248343942101119,0.0591752257743234,0
1099.91944444444,-0.18,0.0357627495058861,0.00253845752670859,0.0589340329814604,0
1099.92222222222,-0.18,0.0369121593781401,0.00255963212625609,0.0587123216729666,0
1099.925,-0.175,0.037510461471457,0.00253634169710741,0.0585083637486326,0
1099.92777777778,-0.185,0.0377145648319279,0.00246013875267022,0.0583195295602908,0
1099.93055555556,-0.18,0.0377030985283867,0.00233098809082616,0.0581421403037422,0
1099.93333333333,-0.175,0.0376601961914891,0.00221632804592919,0.0579715840452127,0
1099.93611111111,-0.175,0.0377589341702954,0.00212471843689601,0.0578022700557048,0
1099.93888888889,-0.175,0.0381457685903963,0.00206410871847804,0.0576375146357527,0
1099.94166666667,-0.175,0.038927206519548,0.00204119019482394,0.0574830490581923,0
1099.94444444444,-0.18,0.040159741227344,0.00206081256730068,0.0573434816362329,0
1099.94722222222,-0.185,0.0418438019838341,0.00212551635864798,0.0572224210953482,0
1099.95,-0.185,0.0439221406608844,0.00223522549410404,0.057122358834122,0
1099.95277777778,-0.195,0.0462827286239455,0.00238713292160134,0.0570443163626536,0
1099.95555555556,-0.2,0.0487658959320125,0.00257579744229505,0.0569882115240047,0
1099.95833333333,-0.205,0.0511751361820341,0.00279345304115291,0.0569529019814081,0
1099.96111111111,-0.205,0.053290745646458,0.0030305143237655,0.056936346958059,0
1099.96388888889,-0.205,0.0548852802793028,0.00327624466407317,0.0569358060746422,0
1099.96666666667,-0.205,0.0557397080441498,0.00351953882356446,0.0569361013183185,0
1099.96944444444,-0.195,0.0556591098072901,0.00374976045502295,0.0569343685091432,0
1099.97222222222,-0.195,0.0544868367695399,0.0039567773582316,0.0569311031113227,0
1099.975,-0.19,0.0521161580452759,0.00413191257507178,0.0569268135750282,0
1099.97777777778,-0.19,0.0484986165839777,0.00427563867180503,0.056921995396516,0
1099.98055555556,-0.19,0.0436485405697721,0.00438339502824552,0.056917108851379,0
1099.98333333333,-0.195,0.0376434147387692,0.00445680245783433,0.0569120046855971,0
1099.98611111111,-0.2,0.0306200854601242,0.00450061667120237,0.0569062372250779,0
1099.98888888889,-0.215,0.0227670393032018,0.00452238159121324,0.0568995269795759,0
1099.99166666667,-0.225,0.0143132428130284,0.00453184406768941,0.0568917571256014,0
1099.99444444444,-0.225,0.00551424868949221,0.00454017049656581,0.056883037421296,0
1099.99722222222,-0.225,-0.00336355022422642,0.00455902324132201,0.0568735445664497,0
1100,-0.22,-0.0120595115259086,0.00459956782719445,0.0568634641633844,0
1100.00277777778,-0.23,-0.0203351012670851,0.00467148941181355,0.0568529744913451,0
1100.00555555556,-0.235,-0.0279889339856494,0.00478209824351174,0.0568423428898318,0
1100.00833333333,-0.225,-0.0348694646584162,0.00493559842756965,0.0568318042465722,0
1100.01111111111,-0.225,-0.0408844211550085,0.00512702411085748,0.0568215317838516,0
1100.01388888889,-0.235,-0.0460062447802713,0.005283393065985,0.0568116173283388,0
1100.01666666667,-0.225,-0.0502730395643419,0.00539030761819961,0.05680202243842,0
1100.01944444444,-0.23,-0.0537848083212167,0.00543396169658483,0.056792651633652,0
1100.02222222222,-0.235,-0.056695061708444,0.00540208008763537,0.0567834026205305,0
1100.025,-0.24,-0.0591982086039132,0.00528479645452201,0.0567740743826158,0
1100.02777777778,-0.235,-0.0615134520407185,0.00507540207692118,0.0567644602816848,0
1100.03055555556,-0.225,-0.0638662025355778,0.0048383131071577,0.0567546443979666,0
1100.03333333333,-0.225,-0.0664682569360545,0.00465387200090222,0.0567448218376055,0
1100.03611111111,-0.235,-0.0694981538420511,0.00453463013207828,0.0567346987657737,0
1100.03888888889,-0.23,-0.0730831870823736,0.00449012178108056,0.0567239246014663,0
1100.04166666667,-0.215,-0.0772845225007514,0.00452630113970715,0.0567150103664091,0
1100.04444444444,-0.21,-0.0820867132528437,0.00464526539813585,0.0567143021376877,0
1100.04722222222,-0.205,-0.08739264635537,0.00484528324233666,0.0567244306575845,0
1100.05,-0.215,-0.0930245894075769,0.0051211210101519,0.0567479073928825,0
1100.05277777778,-0.22,-0.0987315621440251,0.00546463193369382,0.0567869237486665,0
1100.05555555556,-0.225,-0.104202762882513,0.00586554977242439,0.0568431501052834,0
1100.05833333333,-0.25,-0.109086272616982,0.00631240899048647,0.0569175501787927,0
1100.06111111111,-0.255,-0.113011781971654,0.0067935013556555,0.0570102261073431,0
1100.06388888889,-0.26,-0.115615682442369,0.00729777477864067,0.0571203083615372,0
1100.06666666667,-0.26,-0.11656657477059,0.00781558501028113,0.0572459021152369,0
1100.06944444444,-0.245,-0.115589108736808,0.00833922432018104,0.0573841734211998,0
1100.07222222222,-0.23,-0.112484104328044,0.00886317253315805,0.057531450454681,0
1100.075,-0.22,-0.107143124400402,0.00938404308134472,0.0576830996811589,0
1100.07777777778,-0.21,-0.099556067665617,0.00990022768691491,0.0578338649969072,0
1100.08055555556,-0.21,-0.0898109049637638,0.0104112751218313,0.0579894209408114,0
1100.08333333333,-0.22,-0.078085351728155,0.0109170691829247,0.0581547795209347,0
1100.08611111111,-0.22,-0.0646310015277673,0.0114168956137119,0.058334177750433,0
1100.08888888889,-0.215,-0.0497511755883586,0.011908504569195,0.0585308809027324,0
1100.09166666667,-0.2,-0.0337744023090504,0.0123872823164283,0.0587470747041801,0
1100.09444444444,-0.185,-0.0170259613606011,0.0128456419606989,0.0589838761484718,0
1100.09722222222,-0.16,0.000199750747269677,0.0132727278199501,0.0592414249502375,0
1100.1,-0.135,0.0176631980940465,0.0136545024182239,0.0595190446579165,0
1100.10277777778,-0.12,0.0351973807478436,0.0139742507438202,0.0598154568648426,0
1100.10555555556,-0.105,0.0527170243608862,0.014213496155392,0.060129027828253,0
1100.10833333333,-0.08,0.0702178077847889,0.0143532795820867,0.0604580148893666,0
1100.11111111111,-0.07,0.0877650564559815,0.0143308467973568,0.0608005468109877,0
1100.11388888889,-0.055,0.105472356753872,0.014440881884792,0.0611531993426456,0
1100.11666666667,-0.055,0.123471607221404,0.0146940334939048,0.0615086582965034,0
1100.11944444444,-0.045,0.1418770160743,0.0150949545310301,0.0618594309543766,0
1100.12222222222,-0.035,0.160746379264387,0.0156411105180928,0.0621989657712261,0
1100.125,-0.02,0.180043536509308,0.0163220726442555,0.0625259656425896,0
1100.12777777778,0.01,0.199606129320846,0.0171194128902473,0.0628390569039723,0
1100.13055555556,0.055,0.219122627042817,0.018007273138078,0.0631366561883891,0
1100.13333333333,0.075,0.238122029463113,0.0189536241666927,0.0634171982386705,0
1100.13611111111,0.11,0.255978720119885,0.019922168189074,0.0636793812283337,0
1100.13888888889,0.105,0.271933693204296,0.0208747752951554,0.0639224069783471,0
1100.14166666667,0.095,0.28513190400126,0.0217742854846391,0.0641461937356358,0
1100.14444444444,0.085,0.294673921407557,0.0225874595597953,0.0643515413678729,0
1100.14722222222,0.06,0.299678533109926,0.0232878291526794,0.0645402327322287,0
1100.15,0.03,0.299351617833311,0.0238581827435527,0.0647149850690355,0
1100.15277777778,0.04,0.293055595888926,0.0242924334213414,0.0648794270711931,0
1100.15555555556,0.035,0.280373219297014,0.0245966463142039,0.0650382739539469,0
1100.15833333333,0.055,0.261159452485594,0.0247890580837913,0.0651976152248068,0
1100.16111111111,0.055,0.235575766158924,0.024898994622781,0.0653518980780301,0
1100.16388888889,0.045,0.204102311264598,0.0249646812256247,0.0654957839547777,0
1100.16666666667,0.04,0.167525093930448,0.0250300355278387,0.0656244187993243,0
1100.16944444444,0.02,0.126897320803949,0.0251406297971015,0.065734740312558,0
1100.17222222222,-0.01,0.0834763676948147,0.0253390975101252,0.0658248630082504,0
1100.175,-0.04,0.0386401500973057,0.0256603314551155,0.0658941002560229,0
1100.17777777778,-0.07,-0.00621116808692538,0.026126869537181,0.0659429115278243,0
1100.18055555556,-0.1,-0.0497604109287282,0.0267448841616282,0.0659727828422078,0
1100.18333333333,-0.13,-0.090876641762057,0.027501177693286,0.0659860517715233,0
1100.18611111111,-0.155,-0.128707003568739,0.0283615386911633,0.0659917772670749,0
1100.18888888889,-0.16,-0.162748041127966,0.029270732804115,0.0659857769118086,0
1100.19166666667,-0.175,-0.192888559455032,0.0301317467204239,0.0659664817028942,0
1100.19444444444,-0.19,-0.219418033645933,0.0304653847640521,0.0659329104970671,0
1100.19722222222,-0.205,-0.242997225431501,0.0301425220133415,0.0658848310533086,0
1100.2,-0.22,-0.264590793915099,0.0299106169232124,0.0658228825887788,0
1100.20277777778,-0.24,-0.285365068587653,0.0300980047092033,0.0657487670785488,0
1100.20555555556,-0.255,-0.30655750059678,0.0307912733955602,0.065666224055945,0
1100.20833333333,-0.26,-0.329327327216939,0.032055803126995,0.0655813276047965,0
1100.21111111111,-0.265,-0.354599388616598,0.0339280673379885,0.0654984982680779,0
1100.21388888889,-0.275,-0.382914575441612,0.0364092563764228,0.0654129296061541,0
1100.21666666667,-0.27,-0.414300870478282,0.0394608124338827,0.0653194472573,0
1100.21944444444,-0.26,-0.448178267671664,0.0430023660015959,0.065212785506482,0
1100.22222222222,-0.26,-0.483308990886703,0.0469124220866439,0.0650878847008513,0
1100.225,-0.27,-0.517801477231442,0.0510319673882281,0.0649401950432637,0
1100.22777777778,-0.275,-0.54917271820941,0.0551709689767526,0.0647659262179333,0
1100.23055555556,-0.27,-0.574469037058982,0.0591175245531854,0.0645622683438771,0
1100.23333333333,-0.265,-0.590440562268584,0.0626492193299336,0.0643280058786264,0
1100.23611111111,-0.255,-0.593759919089888,0.0655460605142785,0.0640636651939301,0
1100.23888888889,-0.255,-0.581271399892212,0.0676042119645672,0.0637707655530138,0
1100.24166666667,-0.24,-0.550253467771806,0.0686496514659299,0.0634515086964794,0
1100.24444444444,-0.24,-0.498675220973128,0.0685508307917057,0.063110230775363,0
1100.24722222222,-0.21,-0.42542664142737,0.0684106746433808,0.0627524830529352,0
1100.25,-0.185,-0.330503206182058,0.0694013192435378,0.0623849333491192,0
1100.25277777778,-0.115,-0.21512777095833,0.0714100245836271,0.0620147442721655,0
1100.25555555556,-0.01,-0.0817964276944832,0.0742837165052168,0.0616493866111976,0
1100.25833333333,0.155,0.065759943953429,0.0778411096807289,0.0612952811584397,0
1100.26111111111,0.355,0.222700813261625,0.0818865253485278,0.060950567580507,0
1100.26388888889,0.565,0.383283857840895,0.0862243080815673,0.0606136541228193,0
1100.26666666667,0.78,0.541145265714787,0.0906726918009653,0.0602831519208504,0
1100.26944444444,0.98,0.689636414990567,0.0950760054894698,0.0599577792979398,0
1100.27222222222,1.16,0.822196081843331,0.099314241803671,0.059636246601508,0
1100.275,1.335,0.932733950380233,0.103309227346612,0.0593171352396907,0
1100.27777777778,1.475,1.01599953422417,0.107026914865794,0.0589987844252984,0
1100.28055555556,1.575,1.06791084824729,0.109614365131997,0.0586791984142959,0
1100.28333333333,1.625,1.08581932336734,0.110700099858801,0.0583559864786664,1
1100.28611111111,1.605,1.06869141965964,0.110217068529695,0.0580263435153016,0
1100.28888888889,1.515,1.01719289963493,0.108178156677232,0.0576870763753798,0
1100.29166666667,1.39,0.933668383372675,0.105133904585446,0.057336382204524,0
1100.29444444444,1.2,0.822016130821561,0.101975019550834,0.0569812299558599,0
1100.29722222222,0.945,0.687465433695039,0.0986406498453761,0.0566285278599198,0
1100.3,0.655,0.53627098213549,0.0951026061929922,0.0562848072314015,0
1100.30277777778,0.39,0.375344559662303,0.0913727933517839,0.0559559389721505,0
1100.30555555556,0.17,0.211848945455022,0.0875069210476049,0.0556468978090048,0
1100.30833333333,0.03,0.0527816075104265,0.0836040741395189,0.0553616261909356,0
1100.31111111111,-0.06,-0.0954235644509818,0.0798020749997309,0.0551029599386374,0
1100.31388888889,-0.11,-0.227249670405866,0.076268934522773,0.0548724895986568,0
1100.31666666667,-0.13,-0.338381965283469,0.0731910310535823,0.0546705631354571,0
1100.31944444444,-0.16,-0.425906542201026,0.0707589493726307,0.0544962598078504,0
1100.32222222222,-0.195,-0.48841078139875,0.0691521291946212,0.0543476252200782,0
1100.325,-0.255,-0.525981119653349,0.0685455960217264,0.0542218472660137,0
1100.32777777778,-0.315,-0.540101255477672,0.0680831349287393,0.054115148801325,0
1100.33055555556,-0.36,-0.533461130894151,0.066468620127311,0.0540220678998065,0
1100.33333333333,-0.4,-0.509693361674171,0.0637004116683097,0.0539369758096126,0
1100.33611111111,-0.425,-0.473058739868603,0.05986089967433,0.0538541523934094,0
1100.33888888889,-0.435,-0.428105634139824,0.0554116470586319,0.0537690097439366,0
1100.34166666667,-0.42,-0.37932933722667,0.0506051745658712,0.0536851275710894,0
1100.34444444444,-0.41,-0.33085658946859,0.045693585076057,0.0536055865661176,0
1100.34722222222,-0.41,-0.286177741929193,0.0409142330809959,0.0535329186964686,0
1100.35,-0.405,-0.247944567707265,0.0364772076896758,0.0534690689834996,0
1100.35277777778,-0.425,-0.217845974686279,0.0325553392112614,0.0534153942736601,0
1100.35555555556,-0.45,-0.196567306755906,0.0292772325344374,0.0533726965724635,0
1100.35833333333,-0.46,-0.183832091659561,0.0267235971657863,0.0533412833285775,0
1100.36111111111,-0.475,-0.178518562798721,0.0249269019036378,0.0533209657951011,0
1100.36388888889,-0.475,-0.178837575904824,0.0238741497452359,0.0533112049663051,0
1100.36666666667,-0.47,-0.182554107915904,0.0235123624548492,0.0533112303181025,0
1100.36944444444,-0.46,-0.187231698699192,0.0237561983819213,0.0533201402503018,0
1100.37222222222,-0.47,-0.190478169650406,0.024039072524568,0.0533321718288341,0
1100.375,-0.46,-0.190171764924704,0.0235155108825846,0.0533432848352155,0
1100.37777777778,-0.46,-0.184649393653427,0.0223533097579093,0.0533536696644734,0
1100.38055555556,-0.46,-0.172842644383938,0.020861212158611,0.0533635002291332,0
1100.38333333333,-0.465,-0.154352317115363,0.0193495870415754,0.0533729307980589,0
1100.38611111111,-0.46,-0.129457910764852,0.017908128856401,0.0533820937199718,0
1100.38888888889,-0.475,-0.09906430916854,0.0166041912640284,0.0533910991656797,0
1100.39166666667,-0.465,-0.0645933230811509,0.0154811434579813,0.0534000145193555,0
1100.39444444444,-0.47,-0.02783231075416,0.0145587934611251,0.0534087610077435,0
1100.39722222222,-0.475,0.00924455843256089,0.01383564259833,0.0534173042689483,0
1100.4,-0.475,0.0446649727478103,0.0135003866091011,0.0534257293398476,0
1100.40277777778,-0.475,0.0766393993518784,0.0135287846559349,0.0534341289259622,0
1100.40555555556,-0.485,0.103717906185262,0.013814969828324,0.0534426118126869,0
1100.40833333333,-0.47,0.124909283894677,0.0140343411573564,0.053451260683429,0
1100.41111111111,-0.47,0.139752758614954,0.0142262543794013,0.0534599805334594,0
1100.41388888889,-0.46,0.148337240217415,0.0144235861627826,0.0534686887811166,0
1100.41666666667,-0.46,0.151268029407398,0.0146287342064092,0.0534773179185041,0
1100.41944444444,-0.465,0.149585754058271,0.0145157001140846,0.0534858176969084,0
1100.42222222222,-0.49,0.144646585539148,0.0142049609049959,0.0534942043748355,0
1100.425,-0.505,0.137976125151126,0.013860178696487,0.0535023904322842,0
1100.42777777778,-0.5,0.131111467790533,0.0134984971004087,0.0535102998828573,0
1100.43055555556,-0.51,0.125446679943971,0.0131425724769552,0.0535178745302528,0
1100.43333333333,-0.51,0.122096236831815,0.0128173842518458,0.0535250752424611,0
1100.43611111111,-0.515,0.121788943922499,0.0125469561245216,0.0535318828580263,0
1100.43888888889,-0.53,0.124801735331207,0.0123513224234094,0.0535382975330537,0
1100.44166666667,-0.535,0.130938807550225,0.0122440315904462,0.0535444179647387,0
1100.44444444444,-0.56,0.139557190655612,0.0122304121541266,0.053550382057611,0
1100.44722222222,-0.565,0.149635491208633,0.012306742831642,0.0535562458421609,0
1100.45,-0.585,0.159878565431221,0.0124603760054202,0.0535619798185466,0
1100.45277777778,-0.585,0.168847658100493,0.0126707715321642,0.0535675369463407,0
1100.45555555556,-0.605,0.175103356091367,0.012911314013851,0.0535728533912611,0
1100.45833333333,-0.625,0.177347738685229,0.0131517184792958,0.0535778509378282,0
1100.46111111111,-0.63,0.174552426479314,0.0132447633371344,0.0535824409263524,0
1100.46388888889,-0.64,0.166060783257494,0.0130963270312572,0.0535866784613538,0
1100.46666666667,-0.665,0.151655143193256,0.013033237216835,0.0535907485030776,0
1100.46944444444,-0.67,0.131583355677095,0.0130734096233178,0.0535948112367975,0
1100.47222222222,-0.685,0.106542828117879,0.0132263279573535,0.0535990192480118,0
1100.475,-0.705,0.0776242314832895,0.0134921492260855,0.0536036237179775,0
1100.47777777778,-0.715,0.0462207396288223,0.0138616004285949,0.0536087891805042,0
1100.48055555556,-0.725,0.0139117594695072,0.0141088728250607,0.0536146178922355,0
1100.48333333333,-0.74,-0.0176677034812948,0.0142008571570862,0.0536211583910268,0
1100.48611111111,-0.765,-0.0469597999626242,0.0141510066231463,0.0536283969789409,0
1100.48888888889,-0.775,-0.072606539711608,0.0139956981167078,0.0536362514363147,0
1100.49166666667,-0.8,-0.0935514847074611,0.0137894780113104,0.0536445706576855,0
1100.49444444444,-0.82,-0.109111698278838,0.013598514246126,0.0536531412993983,0
1100.49722222222,-0.805,-0.119014216966722,0.0134929350452945,0.0536617005817049,0
1100.5,-0.82,-0.123394793193168,0.013538832712885,0.0536699543746022,0
1100.50277777778,-0.825,-0.122760277544487,0.0135979525695263,0.0536775974263629,0
1100.50555555556,-0.805,-0.117919421774708,0.0135068619133904,0.053684472277366,0
1100.50833333333,-0.81,-0.109889764626114,0.013264805362283,0.0536904421802672,0
1100.51111111111,-0.805,-0.099790345092516,0.0128785169612413,0.0536953999876791,0
1100.51388888889,-0.8,-0.0887310851871334,0.0123613537600475,0.0536992784966313,0
1100.51666666667,-0.795,-0.0777097074050432,0.0117320800073015,0.0537020900727927,0
1100.51944444444,-0.8,-0.0675260164988298,0.0110134346860454,0.0537038942651641,0
1100.52222222222,-0.79,-0.0587213986510708,0.0102306193906489,0.0537047951859479,0
1100.525,-0.765,-0.0515486810299406,0.0094098341798142,0.0537049447679017,0
1100.52777777778,-0.75,-0.0459743271636368,0.00857696804115479,0.0537044381996469,0
1100.53055555556,-0.735,-0.0417116359975738,0.00775652105125034,0.0537032354393953,0
1100.53333333333,-0.69,-0.0382804925186476,0.00709776213542448,0.0537013110138101,0
1100.53611111111,-0.67,-0.0350865913518882,0.00675604270157849,0.0536986567274868,0
1100.53888888889,-0.625,-0.0315111763979019,0.00673356980673185,0.0536952825442566,0
1100.54166666667,-0.58,-0.0270013883493889,0.00700739353284073,0.0536912166311829,0
1100.54444444444,-0.545,-0.0211513741555096,0.00748815212133997,0.0536863559850995,0
1100.54722222222,-0.5,-0.0137653740733857,0.00786586936694578,0.053680487134662,0
1100.55,-0.485,-0.00489595018743371,0.00813529071532227,0.0536734472276203,0
1100.55277777778,-0.465,0.0051468445371631,0.00829365677832219,0.0536651352294205,0
1100.55555555556,-0.435,0.0158165023421179,0.00834066714986085,0.0536555151487176,0
1100.55833333333,-0.435,0.0263792798801574,0.00827853420167029,0.053644614029726,0
1100.56111111111,-0.42,0.0359866164729741,0.00811210999837826,0.0536325155234548,0
1100.56388888889,-0.39,0.0437633083095696,0.00784904697738812,0.0536193489681294,0
1100.56666666667,-0.355,0.0489022867697761,0.00770348743619359,0.0536052800630814,0
1100.56944444444,-0.32,0.050756063811531,0.00774062607194021,0.0535904962829843,0
1100.57222222222,-0.295,0.0489151273746279,0.00792421794671062,0.0535751894302556,0
1100.575,-0.275,0.0432647773847852,0.00820209121604983,0.0535595424156492,0
1100.57777777778,-0.27,0.0340139726474536,0.00851215148514808,0.0535437245279397,0
1100.58055555556,-0.265,0.0216925083638493,0.00878935685874786,0.0535278640535881,0
1100.58333333333,-0.25,0.00711599364868993,0.00897295831834518,0.053512040842408,0
1100.58611111111,-0.25,-0.00867866224365745,0.00901327411523728,0.0534962837891081,0
1100.58888888889,-0.25,-0.0245215384951697,0.00887731305718783,0.0534805855451631,0
1100.59166666667,-0.25,-0.0392135738557656,0.00859026621617424,0.0534649140457003,0
1100.59444444444,-0.255,-0.0516361345357693,0.00840100373351013,0.0534492167401113,0
1100.59722222222,-0.245,-0.0608556568203333,0.00831541057649226,0.0534334042388663,0
1100.6,-0.235,-0.0662130458310777,0.00833325576111692,0.0534174034250736,0
1100.60277777778,-0.23,-0.0673888360701226,0.00844800836546569,0.0534011806160719,0
1100.60555555556,-0.22,-0.0644373451436339,0.00864710069135747,0.0533847543354095,0
1100.60833333333,-0.205,-0.0577859708406779,0.00891264278586147,0.0533684005798909,0
1100.61111111111,-0.21,-0.048199115306273,0.00922255091096267,0.0533527304434054,0
1100.61388888889,-0.205,-0.0367096470165098,0.00942505130343053,0.0533376083157203,0
1100.61666666667,-0.215,-0.0245239980459011,0.00935853478721478,0.0533227233323781,0
1100.61944444444,-0.225,-0.0129096272575211,0.00906678534379726,0.0533076921097499,0
1100.62222222222,-0.24,-0.003075396880686,0.00882911109528229,0.0532920769528886,0
1100.625,-0.245,0.00394377542306406,0.00866421540046044,0.053276921619818,0
1100.62777777778,-0.245,0.00738690482175419,0.00858567861129268,0.0532739487739308,0
1100.63055555556,-0.245,0.00684183932519646,0.00860123687044362,0.0532858171658706,0
1100.63333333333,-0.235,0.00228765659785894,0.00871256595710777,0.0533148031564721,0
1100.63611111111,-0.235,-0.00589979965357784,0.0089155843668047,0.0533626064944528,0
1100.63888888889,-0.22,-0.0169800875457323,0.00920123969300913,0.0534301746454771,0
1100.64166666667,-0.215,-0.0299152496646634,0.0095566946765815,0.0535175601615352,0
1100.64444444444,-0.215,-0.0434656189521206,0.00996678891027675,0.0536238228866802,0
1100.64722222222,-0.215,-0.0563053181529431,0.0102120723540318,0.0537469832766062,0
1100.65,-0.22,-0.0671464308226326,0.0102258352264296,0.0538840367582247,0
1100.65277777778,-0.225,-0.0748598786411038,0.0100478345844997,0.0540310440729772,0
1100.65555555556,-0.23,-0.0785812496606899,0.00973946151024228,0.0541832775322729,0
1100.65833333333,-0.24,-0.0777911787824665,0.00937772009494086,0.0543354203000007,0
1100.66111111111,-0.24,-0.0723622677057963,0.00904747106723447,0.0544908533791923,0
1100.66388888889,-0.235,-0.0625677281404707,0.00883266285448028,0.0546542147305309,0
1100.66666666667,-0.24,-0.0490506391339884,0.00880738706527996,0.0548294480248401,0
1100.66944444444,-0.235,-0.0327565733670987,0.00902763066038756,0.0550196744285105,0
1100.67222222222,-0.235,-0.0148359944932426,0.00948695795368023,0.0552271397546432,0
1100.675,-0.2,0.00347410006797223,0.00994828019443819,0.0554532394595046,0
1100.67777777778,-0.185,0.0209776268124645,0.0104081856744489,0.055698597262435,0
1100.68055555556,-0.175,0.0366432103468078,0.0108584228612314,0.0559631950466096,0
1100.68333333333,-0.175,0.049711733363015,0.0112853587972977,0.0562465436642444,0
1100.68611111111,-0.155,0.0597764441584015,0.0116700686482506,0.056547918039518,0
1100.68888888889,-0.15,0.0668269417608914,0.0119891080758409,0.0568665022531945,0
1100.69166666667,-0.15,0.0712517786793302,0.012215949661687,0.057201552721251,0
1100.69444444444,-0.13,0.0737984278156281,0.0123229918434844,0.0575474740985083,0
1100.69722222222,-0.105,0.0754935757424955,0.0122839810367581,0.057897549332704,0
1100.7,-0.085,0.0775307247273901,0.0124913301210948,0.0582448361445768,0
1100.70277777778,-0.08,0.0811355169343538,0.0128827681878924,0.0585825227747892,0
1100.70555555556,-0.075,0.0874216913512946,0.0134652653343282,0.0589042775468029,0
1100.70833333333,-0.07,0.0972518850081053,0.0142353395710504,0.0592085821401192,0
1100.71111111111,-0.04,0.11111744201015,0.0151781759053348,0.0594944399762962,0
1100.71388888889,-0.005,0.129049969719469,0.0162676896639709,0.0597609877404324,0
1100.71666666667,0.025,0.150574684891217,0.0174676060112879,0.0600076758926085,0
1100.71944444444,0.065,0.174711851200064,0.018733533345128,0.0602344414382351,0
1100.72222222222,0.08,0.200028155464918,0.0200159098488514,0.0604418564566477,0
1100.725,0.095,0.224735110430007,0.0212636092182285,0.0606312370480304,0
1100.72777777778,0.075,0.246826953030951,0.0224279127647854,0.0608047020428929,0
1100.73055555556,0.065,0.264246471690176,0.0234664991567882,0.0609651792307447,0
1100.73333333333,0.045,0.275064142780772,0.0243470767298412,0.0611163403629716,0
1100.73611111111,0.035,0.277654200405294,0.0250502908963741,0.0612624834006493,0
1100.73888888889,0.05,0.270851006081306,0.0255715820780929,0.0614083622900933,0
1100.74166666667,0.07,0.254070391067504,0.0259217459283269,0.0615499621627432,0
1100.74444444444,0.095,0.227383434255541,0.0261260523410787,0.0616819953119662,0
1100.74722222222,0.095,0.191534192384116,0.0262219048926199,0.0617999156851076,0
1100.75,0.09,0.147897872922976,0.0262551576396726,0.0619001029491441,0
1100.75277777778,0.05,0.098381395048673,0.0262753398162763,0.0619799850114196,0
1100.75555555556,0.01,0.0452737264152665,0.0263301586366078,0.0620380955184039,0
1100.75833333333,-0.04,-0.00894169301058881,0.026459744412884,0.0620740675044818,0
1100.76111111111,-0.095,-0.0617961951529098,0.0266911604895948,0.0620885661795066,0
1100.76388888889,-0.135,-0.111047999881053,0.0270337156755168,0.0620846185421496,0
1100.76666666667,-0.13,-0.15487751352659,0.0274755849528301,0.0620836109062356,0
1100.76944444444,-0.15,-0.19204701649716,0.0279821652367172,0.0620850265104614,0
1100.77222222222,-0.145,-0.222008603034138,0.0284964709671914,0.0620882768083779,0
1100.775,-0.15,-0.24494846299989,0.0289417174303435,0.062092736888294,0
1100.77777777778,-0.16,-0.261761055196601,0.029226059476544,0.062097779295654,0
1100.78055555556,-0.175,-0.273952955838282,0.0292028550634283,0.0621028055123918,0
1100.78333333333,-0.21,-0.283482634015047,0.0295412082167081,0.0621073247162729,0
1100.78611111111,-0.24,-0.292548532426683,0.0303325604579382,0.0621109846740715,0
1100.78888888889,-0.235,-0.303343055748023,0.0316499345285555,0.0621141948732433,0
1100.79166666667,-0.265,-0.317793895871575,0.0335389810933077,0.0621173666957962,0
1100.79444444444,-0.27,-0.337316169370506,0.0360102902133506,0.062120807823059,0
1100.79722222222,-0.245,-0.362598872054264,0.0390336979241425,0.0621247177002284,0
1100.8,-0.24,-0.393447104587724,0.0425352087712808,0.0621291913459357,0
1100.80277777778,-0.23,-0.428697509244316,0.0463969893259775,0.0621342305399321,0
1100.80555555556,-0.22,-0.466218673251492,0.050460676150216,0.062139760962585,0
1100.80833333333,-0.22,-0.50300134408516,0.054533999204797,0.0621456533199145,0
1100.81111111111,-0.215,-0.535335728928138,0.0584004661911378,0.0621517465081663,0
1100.81388888889,-0.205,-0.559065547450146,0.0618316044437908,0.0621578711051541,0
1100.81666666667,-0.21,-0.569901524414482,0.0646010346183405,0.0621638718232216,0
1100.81944444444,-0.215,-0.56377125807085,0.0664994730433219,0.0621696263331974,0
1100.82222222222,-0.215,-0.537178401611933,0.067349642811582,0.0621750599433925,0
1100.825,-0.21,-0.487542229804298,0.0670220376188124,0.0621801557475418,0
1100.82777777778,-0.205,-0.413489139884972,0.0679803869657681,0.062184957466968,0
1100.83055555556,-0.17,-0.315070470046019,0.0700818880779006,0.0621895675210638,0
1100.83333333333,-0.11,-0.193886027690471,0.0731315912914737,0.0621941157959226,0
1100.83611111111,-0.015,-0.0530995354440981,0.0768992166792102,0.0621987077946966,0
1100.83888888889,0.155,0.102659698548769,0.0811381451957397,0.0622033597869866,0
1100.84166666667,0.36,0.267505836777294,0.0856049966988239,0.0622080762631921,0
1100.84444444444,0.59,0.434604559408351,0.0900781708521846,0.0622128444587345,0
1100.84722222222,0.825,0.596560441636738,0.0943738279009056,0.0622176299911696,0
1100.85,1.015,0.745857487211191,0.0983580158821101,0.0622223733645593,0
1100.85277777778,1.195,0.875322083075108,0.101953989212531,0.0622269885063165,0
1100.85555555556,1.355,0.978575418102799,0.105144181677621,0.0622313634945032,0
1100.85833333333,1.485,1.05044272462397,0.107966758722889,0.0622353640414161,0
1100.86111111111,1.58,1.0872895485452,0.110084363013327,0.0622388375320526,1
1100.86388888889,1.62,1.08726042095875,0.110628546387186,0.0622415834827715,0
1100.86666666667,1.575,1.0504023914854,0.109560168881045,0.0622436266168247,0
1100.86944444444,1.49,0.978664335912215,0.107088344898281,0.0622450196858469,0
1100.87222222222,1.345,0.875772102595043,0.104374917405639,0.0622458436079661,0
1100.875,1.13,0.746988692851755,0.101326908145015,0.0622462032492454,0
1100.87777777778,0.845,0.59877706318864,0.0978958053235309,0.0622462124792586,0
1100.88055555556,0.535,0.43839013706574,0.0940863087522354,0.0622459910600636,0
1100.88333333333,0.26,0.273417681961689,0.0899601596434268,0.062245657656698,0
1100.88611111111,0.055,0.111322463541602,0.0856346800886666,0.0622453214823321,0
1100.88888888889,-0.075,-0.0410016587469975,0.0812761051555988,0.0622450736106793,0
1100.89166666667,-0.145,-0.177619270172192,0.0770882399829765,0.0622449788516192,0
1100.89444444444,-0.175,-0.293864670181795,0.0732973768343157,0.0622450688109491,0
1100.89722222222,-0.175,-0.386555381458911,0.0701347286448164,0.0622453364331345,0
1100.9,-0.175,-0.454096172225228,0.0678178491648833,0.0622457333676797,0
1100.90277777778,-0.19,-0.496470346526078,0.0665619402722633,0.0622461698351705,0
1100.90555555556,-0.23,-0.515123570655621,0.0666773752369847,0.062246517820659,0
1100.90833333333,-0.275,-0.512753376236462,0.0655450530595795,0.0622466181180194,0
1100.91111111111,-0.315,-0.493024103684118,0.0631553992633858,0.0622462876224912,0
1100.91388888889,-0.35,-0.46023192988666,0.0596446021657247,0.062245356002269,0
1100.91666666667,-0.37,-0.418947419463338,0.0554130936290113,0.0622437211452035,0
1100.91944444444,-0.37,-0.373663586038041,0.0507146520418574,0.0622414116722741,0
1100.92222222222,-0.365,-0.328475771964963,0.0458085260838016,0.0622385024073523,0
1100.925,-0.375,-0.286815956421951,0.0409440636793764,0.062235111551922,0
1100.92777777778,-0.37,-0.251258747252532,0.0363469578935907,0.0622313942894619,0
1100.93055555556,-0.37,-0.223409791684126,0.0322079172326591,0.0622275329622982,0
1100.93333333333,-0.37,-0.203880227131372,0.0286743580570077,0.0622237241884296,0
1100.93611111111,-0.37,-0.192343689599161,0.0258454745383292,0.0622201634795569,0
1100.93888888889,-0.365,-0.187665887996046,0.0237707860491087,0.0622170272952803,0
1100.94166666667,-0.36,-0.18809135403129,0.0224520125519357,0.0622144564284719,0
1100.94444444444,-0.37,-0.191468095594655,0.0218479036732988,0.062212524023496,0
1100.94722222222,-0.37,-0.195488781923259,0.0218814622805657,0.0622109489848851,0
1100.95,-0.375,-0.197926877406823,0.0222854086782044,0.0622093509288577,0
1100.95277777778,-0.385,-0.196847759921823,0.021905249980374,0.0622078944609688,0
1100.95555555556,-0.39,-0.190778097743222,0.02090955872782,0.0622069748925906,0
1100.95833333333,-0.4,-0.178821274107572,0.0194883382975697,0.0622068745760878,0
1100.96111111111,-0.42,-0.160712000768289,0.0180166624411642,0.0622065929652376,0
1100.96388888889,-0.405,-0.136808955392569,0.0165964699147557,0.0621977752727421,0
1100.96666666667,-0.395,-0.108029804760269,0.0153031259149319,0.0621776186817284,0
1100.96944444444,-0.39,-0.0757378616386853,0.0141878359616449,0.0621435197519829,0
1100.97222222222,-0.385,-0.0415934663073814,0.0132774214945852,0.0620932613755133,0
1100.975,-0.38,-0.00738568833945394,0.0126319528204945,0.0620251936850825,0
1100.97777777778,-0.38,0.0251390567502681,0.0123439534853458,0.0619383959359401,0
1100.98055555556,-0.385,0.0544354160985665,0.0123653674403894,0.0618328067614917,0
1100.98333333333,-0.375,0.0792904329189473,0.0125857585003952,0.0617093115179102,0
1100.98611111111,-0.385,0.0989168566592316,0.0127269981415198,0.061569777972984,0
1100.98888888889,-0.405,0.113001496609911,0.0128330711822381,0.0614170338655918,0
1100.99166666667,-0.41,0.121706166925175,0.0129431676942333,0.0612547828474379,0
1100.99444444444,-0.41,0.125623294398567,0.0130139617449257,0.0610874612027892,0
1100.99722222222,-0.42,0.125692412344631,0.0128127333369108,0.0609200425848496,0
1101,-0.42,0.123087178755094,0.0125456540210033,0.0607525476897712,0
1101.00277777778,-0.415,0.119084947947863,0.0122135861464176,0.0605797372291559,0
1101.00555555556,-0.41,0.11493210839974,0.0118266899779872,0.0603968279288275,0
1101.00833333333,-0.395,0.111718307875646,0.0114022106395496,0.0601996822534819,0
1101.01111111111,-0.41,0.110271371851971,0.0109617485777126,0.0599849479960024,0
1101.01388888889,-0.415,0.111082344856096,0.0105283312407608,0.0597501332536855,0
1101.01666666667,-0.435,0.114266901668995,0.0101235967998348,0.0594936301716258,0
1101.01944444444,-0.455,0.119565707968373,0.00976536567627246,0.0592151797960645,0
1101.02222222222,-0.47,0.126382514743785,0.00946581741239239,0.0589317629914066,0
1101.025,-0.475,0.133855205899764,0.0092304158494893,0.0586448085164963,0
1101.02777777778,-0.48,0.140952010409199,0.00905764254870214,0.0583553922541264,0
1101.03055555556,-0.49,0.146582904740624,0.00893951510661821,0.0580639332412014,0
1101.03333333333,-0.495,0.149715049695702,0.00886279122517443,0.0577737683725168,0
1101.03611111111,-0.505,0.149481011349532,0.00881069771022269,0.057488996375597,0
1101.03888888889,-0.51,0.1452694878752,0.00885164772999906,0.0572121493997043,0
1101.04166666667,-0.52,0.1367901828989,0.00890857404526765,0.0569448159571808,0
1101.04444444444,-0.53,0.124107126407664,0.00899160593612872,0.0566919171312373,0
1101.04722222222,-0.53,0.107637876590053,0.0091112501940072,0.0564591026188366,0
1101.05,-0.54,0.0881193332617431,0.00927240728288594,0.0562524566874197,0
1101.05277777778,-0.545,0.0665440407020424,0.00947374016219597,0.0560780829715402,0
1101.05555555556,-0.57,0.0440735615209689,0.00965174262863224,0.0559416417269055,0
1101.05833333333,-0.58,0.0219375190145535,0.00968543817841809,0.0558478726252564,0
1101.06111111111,-0.585,0.00132805931877728,0.00957500784560905,0.0558001383099162,0
1101.06388888889,-0.595,-0.016700312177414,0.00934092244779699,0.0558000245001336,0
1101.06666666667,-0.6,-0.0313163101948704,0.00914564405409376,0.0558470313338986,0
1101.06944444444,-0.605,-0.0419752543251166,0.00901218889540927,0.0559383825747061,0
1101.07222222222,-0.605,-0.0484549320785103,0.00895910186169752,0.0560689738043734,0
1101.075,-0.59,-0.0508613476183021,0.00900087571996921,0.0562314668017126,0
1101.07777777778,-0.595,-0.049604679098724,0.00913065099381671,0.0564164250622398,0
1101.08055555556,-0.59,-0.0453485823663983,0.0090936282343378,0.0566170993241023,0
1101.08333333333,-0.58,-0.0389384267241966,0.0088670417259721,0.0568316511246909,0
1101.08611111111,-0.585,-0.0313159036975978,0.00844673277649643,0.0570577205254786,0
1101.08888888889,-0.575,-0.0234285475960197,0.00790984005804935,0.0572924124363969,0
1101.09166666667,-0.57,-0.0161429580723536,0.00730816435979401,0.0575376479072443,0
1101.09444444444,-0.575,-0.0101699135415764,0.00666217293758828,0.0577975421138239,0
1101.09722222222,-0.57,-0.00600818578488839,0.0059936691873907,0.0580746344906417,0
1101.1,-0.54,-0.0039118591369724,0.00532440635268504,0.0583699879588211,0
1101.10277777778,-0.53,-0.00388352889810981,0.00467483438319336,0.0586833945443057,0
1101.10555555556,-0.495,-0.00569314663669559,0.004063070805907,0.0590136657436404,0
1101.10833333333,-0.475,-0.00891975154427985,0.00361398502072266,0.0593589824701115,0
1101.11111111111,-0.45,-0.0130111218980643,0.00337341643149224,0.059717271823204,0
1101.11388888889,-0.43,-0.0173547087430208,0.00334878778117552,0.0600865752052635,0
1101.11666666667,-0.395,-0.0213522300307681,0.00352836925866112,0.0604625985999334,0
1101.11944444444,-0.355,-0.0244900934802117,0.00379590816235057,0.06084574483982,0
1101.12222222222,-0.345,-0.0263983897139064,0.00398676675400733,0.0612392038299101,0
1101.125,-0.325,-0.0268924866703478,0.00410432349128438,0.0616400947805228,0
1101.12777777778,-0.31,-0.0259931256877019,0.00415346283754795,0.0620405247571063,0
1101.13055555556,-0.295,-0.0239231776087968,0.00414009893670755,0.0624329799461627,0
1101.13333333333,-0.28,-0.0210816362930625,0.00407081575330208,0.0628107622162511,0
1101.13611111111,-0.26,-0.0179977658677189,0.00395264302599437,0.063168278219922,0
1101.13888888889,-0.245,-0.0152703455677673,0.00382530671053453,0.0635011047426089,0
1101.14166666667,-0.215,-0.0134984729872499,0.00387416970535975,0.0638061311628455,0
1101.14444444444,-0.21,-0.0132112452323632,0.00409122083761901,0.0640816248538964,0
1101.14722222222,-0.205,-0.0148037554794739,0.00432707674373819,0.0643272199344789,0
1101.15,-0.205,-0.018486210522038,0.00457050020357078,0.0645438346908692,0
1101.15277777778,-0.2,-0.0242516574162468,0.00481169503357953,0.0647336802481384,0
1101.15555555556,-0.2,-0.031865935803121,0.00504053573917931,0.0648999177859094,0
1101.15833333333,-0.205,-0.0408812325296931,0.00524689704935657,0.0650463824268559,0
1101.16111111111,-0.215,-0.0506722284200649,0.00542112370291037,0.0651771735800647,0
1101.16388888889,-0.205,-0.0604915294433011,0.0055546117875214,0.0652966695191848,0
1101.16666666667,-0.195,-0.0695390935115433,0.00564045239593031,0.0654092780579784,0
1101.16944444444,-0.18,-0.0770388964887498,0.00561204793009749,0.0655208296079184,0
1101.17222222222,-0.175,-0.0823152736936573,0.00563231861740993,0.065631097843518,0
1101.175,-0.155,-0.084861309132511,0.00570483278452957,0.0657367410536919,0
1101.17777777778,-0.155,-0.0843923345241585,0.00582442031112042,0.0658351745086494,0
1101.18055555556,-0.16,-0.0808789810263109,0.00598244450169032,0.065924503377679,0
1101.18333333333,-0.17,-0.07455616795193,0.00616714078632098,0.0660035209928658,0
1101.18611111111,-0.17,-0.065906728935888,0.00636423294843365,0.0660716630656139,0
1101.18888888889,-0.18,-0.0556208436931585,0.00644796375234368,0.0661289258594518,0
1101.19166666667,-0.18,-0.0445348232691202,0.00636748482450397,0.0661757582741794,0
1101.19444444444,-0.2,-0.0335548559617702,0.00623009881272476,0.0662129388544923,0
1101.19722222222,-0.18,-0.0235728566788824,0.0061431818677732,0.0662414488714758,0
1101.2,-0.185,-0.0153824202763785,0.00611843511596758,0.0662623518824486,0
1101.20277777778,-0.175,-0.00960296958896416,0.00616407732240814,0.0662766941680812,0
1101.20555555556,-0.185,-0.00661949498866411,0.00628432353015957,0.0662878345982305,0
1101.20833333333,-0.175,-0.0065438635151701,0.00647921041725989,0.0663001101336372,0
1101.21111111111,-0.16,-0.00920166152613585,0.00674479135665559,0.0663134113348073,0
1101.21388888889,-0.155,-0.0141461136883397,0.00707368703441249,0.0663275471214149,0
1101.21666666667,-0.16,-0.0206980223848182,0.00745594016723673,0.0663422819781333,0
1101.21944444444,-0.165,-0.0280081442112967,0.00784774622092577,0.0663576426419876,0
1101.22222222222,-0.17,-0.0351362090461032,0.00805970723171506,0.0663736812521971,0
1101.225,-0.185,-0.0411391095022573,0.00809708132159157,0.0663904605719109,0
1101.22777777778,-0.195,-0.045159813062759,0.00798407978540777,0.0664080402228374,0
1101.23055555556,-0.19,-0.0465083791979714,0.00776181751671824,0.066426461967718,0
1101.23333333333,-0.19,-0.0447271266453595,0.00748447818370683,0.0664455837918678,0
1101.23611111111,-0.18,-0.0396334396620808,0.0072140215612869,0.0664652206756654,0
1101.23888888889,-0.155,-0.0313357987378714,0.00701390987495821,0.0664851771711429,0
1101.24166666667,-0.165,-0.0202211788607237,0.00694243683311987,0.0665052666512701,0
1101.24444444444,-0.155,-0.0069147378126958,0.00704629628647531,0.0665253295640135,0
1101.24722222222,-0.175,0.00778454598145546,0.00735502110683125,0.0665452485653845,0
1101.25,-0.175,0.0229861962011374,0.00787685639116148,0.0665652308596427,0
1101.25277777778,-0.165,0.0378005480609949,0.00841321317031977,0.0665856950321129,0
1101.25555555556,-0.17,0.0514319243517517,0.00895076083166759,0.066606740480031,0
1101.25833333333,-0.175,0.0632632745170862,0.00947591679301353,0.0666283194182092,0
1101.26111111111,-0.17,0.0729234973278233,0.00996957158993786,0.0666503536535851,0
1101.26388888889,-0.145,0.0803301590086229,0.0104076588603637,0.0666727388828969,0
1101.26666666667,-0.12,0.0857025534753349,0.0107623654406747,0.0666953510094635,0
1101.26944444444,-0.095,0.0895428329260678,0.0110039278420302,0.066718054303679,0
1101.27222222222,-0.065,0.0925860126927752,0.0111028970310398,0.0667407104419988,0
1101.275,-0.045,0.0957227379499472,0.0111730980232135,0.0667631880238804,0
1101.27777777778,-0.04,0.0999014983293032,0.0114335435177425,0.0667853719616722,0
1101.28055555556,-0.03,0.106019216518495,0.0118973476673394,0.066807170726393,0
1101.28333333333,-0.03,0.114810591353217,0.0125676302892526,0.0668285212168892,0
1101.28611111111,-0.03,0.12674708574384,0.0134361368179849,0.0668494877767357,0
1101.28888888889,-0.03,0.14195594046291,0.0144827001349329,0.066870271226839,0
1101.29166666667,-0.005,0.160168085069466,0.0156756680754099,0.0668910964649548,0
1101.29444444444,0.015,0.180701419410757,0.0169733401630206,0.0669121949097235,0
1101.29722222222,0.065,0.202482850986268,0.0183263670289216,0.066933754250385,0
1101.3,0.11,0.224108961923552,0.0196809737853352,0.066955568198776,0
1101.30277777778,0.145,0.243941557600708,0.0209827827328637,0.0669773840378402,0
1101.30555555556,0.16,0.260230948885882,0.0221809394950019,0.0669990109610997,0
1101.30833333333,0.165,0.271256962085692,0.0232321974438954,0.0670203177587866,0
1101.31111111111,0.145,0.275475634702182,0.024104593987695,0.0670412250959053,0
1101.31388888889,0.11,0.271658553376532,0.0247803626227832,0.0670616935279034,0
1101.31666666667,0.1,0.259011947051911,0.0252577676714019,0.0670817079044135,0
1101.31944444444,0.08,0.237263985789393,0.0255516225210006,0.0671014131664487,0
1101.32222222222,0.08,0.206711169876763,0.0256923523010985,0.0671209878457969,0
1101.325,0.095,0.168218039495497,0.0257235810405451,0.0671405553568438,0
1101.32777777778,0.09,0.123168419509854,0.0256983521333206,0.0671601625645274,0
1101.33055555556,0.085,0.0733706990163382,0.0256742187345031,0.0671797676753763,0
1101.33333333333,0.075,0.0209238566157696,0.0257075563427542,0.0671992904157208,0
1101.33611111111,0.045,-0.0319452987861136,0.0258475425823347,0.0672188104291367,0
1101.33888888889,0.03,-0.0830602448874425,0.0261303097514922,0.0672383721435928,0
1101.34166666667,0,-0.130472927176508,0.0265737969921173,0.0672579886944071,0
1101.34444444444,-0.035,-0.172626134959315,0.0271738068665226,0.0672776773236152,0
1101.34722222222,-0.075,-0.208485009943938,0.0279017050669635,0.0672976185736482,0
1101.35,-0.08,-0.237624789164859,0.0287040949669021,0.0673179712698087,0
1101.35277777778,-0.085,-0.260265259349124,0.0295046573635032,0.0673388651403943,0
1101.35555555556,-0.115,-0.277246731016239,0.0299449328676159,0.0673603953634406,0
1101.35833333333,-0.16,-0.289947282033956,0.0295711954192966,0.0673826192424663,0
1101.36111111111,-0.19,-0.300146163845988,0.0293909304454039,0.0674055576557834,0
1101.36388888889,-0.2,-0.30984317212466,0.0296380106010824,0.0674291995108499,0
1101.36666666667,-0.2,-0.321048028205773,0.0304080942832411,0.0674534001114085,0
1101.36944444444,-0.205,-0.335557014359137,0.0317738664522404,0.0674778762537488,0
1101.37222222222,-0.2,-0.354735949604976,0.0337764384442079,0.0675022153926459,0
1101.375,-0.18,-0.3793288848941,0.0364183408052401,0.0675262022848226,0
1101.37777777778,-0.175,-0.409310564375178,0.0396587620995185,0.0675496482389184,0
1101.38055555556,-0.17,-0.443797805290591,0.0434115560844567,0.0675725840049727,0
1101.38333333333,-0.185,-0.481030687325498,0.0475463624500257,0.0675951397712704,0
1101.38611111111,-0.18,-0.518429126423459,0.0518929741141844,0.0676174352695778,0
1101.38888888889,-0.185,-0.55272444672149,0.0562488516260907,0.0676395757382214,0
1101.39166666667,-0.185,-0.580159428839411,0.0603894494133977,0.0676616494596025,0
1101.39444444444,-0.18,-0.596744499784328,0.0640807971113123,0.0676837269071327,0
1101.39722222222,-0.175,-0.59855272010769,0.06709358920191,0.0677058614040953,0
1101.4,-0.165,-0.582032443088059,0.0692178929832414,0.0677279402886928,0
1101.40277777778,-0.155,-0.544314302660751,0.0702775006999989,0.0677496625192863,0
1101.40555555556,-0.14,-0.483488745496884,0.0701429346184879,0.0677707446761635,0
1101.40833333333,-0.125,-0.398831732610262,0.0707709533248453,0.0677909790030798,0
1101.41111111111,-0.08,-0.290959424349688,0.0724442601966572,0.0678102560217487,0
1101.41388888889,-0.005,-0.161897413479185,0.0750066627937917,0.0678285578952159,0
1101.41666666667,0.12,-0.0150560405432299,0.0782761392747846,0.0678459572955228,0
1101.41944444444,0.28,0.144889931121308,0.0820595232243968,0.0678626096880585,0
1101.42222222222,0.475,0.312211998011874,0.0861672372151238,0.0678787358072695,0
1101.425,0.69,0.480416944055285,0.0904268931684649,0.0678945687134052,0
1101.42777777778,0.9,0.64259626688519,0.0946946890706249,0.067910174731511,0
1101.43055555556,1.08,0.791813381938013,0.0988637300438411,0.0679255247675296,0
1101.43333333333,1.245,0.9215029353618,0.102868670224348,0.0679404983282951,0
1101.43611111111,1.425,1.02585537765625,0.106686387645883,0.0679549613053988,0
1101.43888888889,1.55,1.10016073833258,0.110332740841349,0.0679687664919082,0
1101.44166666667,1.66,1.14108824393058,0.112716455585058,0.0679817542963638,0
1101.44444444444,1.69,1.14688283584543,0.113585539742449,0.0679937541949052,1
1101.44722222222,1.67,1.11746543727995,0.112889832670341,0.0680045980591708,0
1101.45,1.6,1.05443055184404,0.110659358706147,0.068014126684458,0
1101.45277777778,1.45,0.960941941281304,0.107002724373452,0.0680226495296486,0
1101.45555555556,1.265,0.841534188043386,0.103003658787608,0.0680304602480234,0
1101.45833333333,1.015,0.701834374023555,0.0987804146360851,0.0680378673697385,0
1101.46111111111,0.725,0.548223427377059,0.0943639435518138,0.0680451655526271,0
1101.46388888889,0.44,0.387460522695258,0.0898259990147575,0.068052526479932,0
1101.46666666667,0.22,0.226296002434659,0.0852772252699476,0.0680600528851976,0
1101.46944444444,0.07,0.0710984939133585,0.0808615534732735,0.0680678146402014,0
1101.47222222222,-0.015,-0.0724797534392646,0.076747336904547,0.0680758459874207,0
1101.475,-0.05,-0.199778629608697,0.0731159308754981,0.0680841447673378,0
1101.47777777778,-0.07,-0.307331092600578,0.0701486366151807,0.068092673864078,0
1101.48055555556,-0.09,-0.392979097187773,0.0680130647533243,0.0681013649212168,0
1101.48333333333,-0.11,-0.455900678179401,0.0668500224816099,0.0681102620205495,0
1101.48611111111,-0.15,-0.496550730252138,0.0667619859211364,0.0681193630886016,0
1101.48888888889,-0.21,-0.516523998177143,0.0657753040221043,0.0681285502754372,0
1101.49166666667,-0.27,-0.518353910789549,0.0636023455607836,0.0681376769326363,0
1101.49444444444,-0.32,-0.505264801908526,0.0604081751759735,0.0681466001338192,0
1101.49722222222,-0.34,-0.480897509366722,0.0563990739020498,0.0681551974156013,0
1101.5,-0.345,-0.449029199146051,0.0518089250674747,0.0681633781969632,0
1101.50277777778,-0.34,-0.413307523830118,0.0468847587832819,0.0681710924675751,0
1101.50555555556,-0.33,-0.377017016386193,0.041872386077126,0.0681783351640548,0
1101.50833333333,-0.325,-0.342892175659837,0.0370030021882336,0.0681851452729032,0
1101.51111111111,-0.33,-0.312987341100083,0.0324815307926876,0.0681916923242911,0
1101.51388888889,-0.325,-0.288608562518713,0.0284773268322451,0.0681982485193079,0
1101.51666666667,-0.33,-0.270307653773468,0.0251176678932611,0.068204991825057,0
1101.51944444444,-0.345,-0.257933877090977,0.0224842572764493,0.0682120292783247,0
1101.52222222222,-0.345,-0.250734597372697,0.0206127512665849,0.0682194240255074,0
1101.525,-0.355,-0.247493065711573,0.0194951234735802,0.068227179583739,0
1101.52777777778,-0.365,-0.246689442218025,0.0190845038014084,0.0682352272387157,0
1101.53055555556,-0.36,-0.246670352160418,0.0193019895451404,0.0682434179080944,0
1101.53333333333,-0.36,-0.24581268275717,0.0200448291773036,0.0682514851941236,0
1101.53611111111,-0.375,-0.242668866463039,0.0202926327542855,0.0682596538662166,0
1101.53888888889,-0.375,-0.236083368645887,0.0200466388034244,0.0682682179545477,0
1101.54166666667,-0.375,-0.225273244240983,0.0194461772316124,0.0682746419389401,0
1101.54444444444,-0.375,-0.209869148037703,0.018631528135796,0.0682726768404915,0
1101.54722222222,-0.38,-0.189916760554984,0.0177337414924537,0.0682598364493783,0
1101.55,-0.385,-0.165841922504516,0.0168659411168605,0.0682337459600483,0
1101.55277777778,-0.38,-0.138385590004726,0.0161166815165605,0.068192305678262,0
1101.55555555556,-0.385,-0.108516823065828,0.0155457323961088,0.0681339038006517,0
1101.55833333333,-0.4,-0.0773332679614897,0.015182451235451,0.0680576289235362,0
1101.56111111111,-0.4,-0.0459589376603617,0.0150266883159512,0.0679634232845642,0
1101.56388888889,-0.395,-0.0154485626658717,0.0150519688984941,0.0678521238143047,0
1101.56666666667,-0.39,0.0132935189138841,0.0152105298627523,0.0677256032533821,0
1101.56944444444,-0.39,0.0395738734071159,0.0154396654059049,0.0675868092625131,0
1101.57222222222,-0.38,0.0629461353522561,0.0156687663634555,0.0674396112611043,0
1101.575,-0.38,0.0832215479657552,0.0158264234161809,0.0672886580233194,0
1101.57777777778,-0.38,0.100455015932584,0.0158470039661305,0.0671391661824603,0
1101.58055555556,-0.39,0.114909940570709,0.015676199293037,0.0669853964559582,0
1101.58333333333,-0.405,0.127006792107966,0.0153317103333912,0.0668222406907527,0
1101.58611111111,-0.41,0.137261486894965,0.0149215162752051,0.0666454565917015,0
1101.58888888889,-0.41,0.146220116729119,0.014450915767798,0.0664518279315418,0
1101.59166666667,-0.43,0.154396422880172,0.0139335410972704,0.0662392402682761,0
1101.59444444444,-0.44,0.162217676968442,0.0133891528421746,0.0660066692568908,0
1101.59722222222,-0.455,0.169983432054611,0.0128410262447129,0.0657541774399513,0
1101.6,-0.455,0.177840084071608,0.0123131945284998,0.0654826949450334,0
1101.60277777778,-0.445,0.185772500683633,0.0118278090044978,0.0651937371464723,0
1101.60555555556,-0.445,0.193612300308244,0.011402849895474,0.0648889981871237,0
1101.60833333333,-0.455,0.201060854553218,0.0110503785931642,0.0645702428650566,0
1101.61111111111,-0.47,0.207723872379792,0.0107754658647809,0.0642390610306307,0
1101.61388888889,-0.49,0.213153596312076,0.01057586638831,0.0638985390347653,0
1101.61666666667,-0.5,0.216894248554746,0.0104424432654674,0.063555622920244,0
1101.61944444444,-0.515,0.218526410852188,0.0103602820808681,0.0632174314555102,0
1101.62222222222,-0.525,0.217706466277014,0.0103103774151052,0.0628901608066536,0
1101.625,-0.535,0.214197997761129,0.0102717294601037,0.0625748525782747,0
1101.62777777778,-0.555,0.207893024993217,0.0102236574856719,0.0622729722757245,0
1101.63055555556,-0.555,0.198822052388049,0.0101481221512665,0.0619862120942687,0
1101.63333333333,-0.565,0.187152979286038,0.0100318505971704,0.0617162773526925,0
1101.63611111111,-0.56,0.173179883673529,0.00986807622706882,0.0614646087826081,0
1101.63888888889,-0.575,0.157303448339372,0.00965773734761657,0.0612320993520193,0
1101.64166666667,-0.58,0.1400052982343,0.00941002266255806,0.0610188733611197,0
1101.64444444444,-0.585,0.1218187374015,0.00914220361397233,0.0608241879936672,0
1101.64722222222,-0.605,0.103298323588731,0.00887874983826848,0.0606462910968122,0
1101.65,-0.625,0.0849904382186126,0.00864978047444456,0.0604823955782809,0
1101.65277777778,-0.635,0.0674065610911279,0.00848895670431265,0.0603287378605348,0
1101.65555555556,-0.645,0.0510004190400651,0.00843096600899106,0.0601805871549661,0
1101.65833333333,-0.65,0.0361496254266153,0.00850878301877425,0.060031822565334,0
1101.66111111111,-0.665,0.0231419360956143,0.00875091306246892,0.0598879544034825,0
1101.66388888889,-0.655,0.0121658752534022,0.00912228309833578,0.059754535235566,0
1101.66666666667,-0.635,0.00330526772492545,0.00950630777241062,0.0596365221198378,0
1101.66944444444,-0.61,-0.00346283741147267,0.00989704621407011,0.0595371059256311,0
1101.67222222222,-0.6,-0.00826726849373883,0.0102864695486233,0.0594583667091748,0
1101.675,-0.575,-0.0113390658490626,0.0106643374029489,0.0594012524772218,0
1101.67777777778,-0.56,-0.0130049934311166,0.0110182262603041,0.0593656254107328,0
1101.68055555556,-0.55,-0.0136779195814161,0.0113338058821969,0.0593503680516344,0
1101.68333333333,-0.535,-0.0138435837844553,0.0115954322619498,0.0593535440785333,0
1101.68611111111,-0.53,-0.0140432239136544,0.0117870824142669,0.0593615820893602,0
1101.68888888889,-0.515,-0.0148516666077347,0.0118936027186155,0.0593681175263938,0
1101.69166666667,-0.485,-0.0168507951004839,0.011902185168705,0.0593735912904446,0
1101.69444444444,-0.45,-0.0205987888684411,0.0118039323152336,0.0593784354518394,0
1101.69722222222,-0.435,-0.0265961343948245,0.0115953295676172,0.0593830490873072,0
1101.7,-0.4,-0.0352500679594111,0.0112794196392256,0.0593877783518307,0
1101.70277777778,-0.38,-0.046839743574724,0.0108664733763366,0.0593927763587962,0
1101.70555555556,-0.345,-0.0614849276387789,0.0106020003396388,0.0593973571945341,0
1101.70833333333,-0.31,-0.0791213152148168,0.010539095917584,0.0594009898122486,0
1101.71111111111,-0.3,-0.0994855645220252,0.0106476065256022,0.0594033177512314,0
1101.71388888889,-0.28,-0.12211280539948,0.0108879066769251,0.0594042978648432,0
1101.71666666667,-0.265,-0.146348677875289,0.0112143750950642,0.0594039978733695,0
1101.71944444444,-0.265,-0.171376922244339,0.0115795322626395,0.059402573985632,0
1101.72222222222,-0.265,-0.196262237362244,0.0119385459057365,0.0594002478193702,0
1101.725,-0.235,-0.22000665261224,0.012253762375437,0.0593972809551803,0
1101.72777777778,-0.22,-0.241616155251118,0.0124988961134327,0.0593939904695094,0
1101.73055555556,-0.22,-0.260172931673833,0.0126625099336056,0.059390762826674,0
1101.73333333333,-0.205,-0.274907476050647,0.0127504475581941,0.0593879393365658,0
1101.73611111111,-0.2,-0.285264138420833,0.0127869365732091,0.0593857601390496,0
1101.73888888889,-0.175,-0.290953544110928,0.0128141624465701,0.0593842316509807,0
1101.74166666667,-0.16,-0.291985791818148,0.0128902181055961,0.0593833591112568,0
1101.74444444444,-0.16,-0.288679449040173,0.0130854524834992,0.059383133705823,0
1101.74722222222,-0.16,-0.281643069751284,0.0134773675052843,0.0593834655363423,0
1101.75,-0.17,-0.271728156982359,0.0141443371697431,0.059384048236748,0
1101.75277777778,-0.185,-0.259955021511728,0.0151585351731853,0.0593846988428683,0
1101.75555555556,-0.195,-0.247415640030372,0.0165785495811009,0.0593852242439968,0
1101.75833333333,-0.185,-0.235160154588634,0.0184422259735816,0.0593854430682885,0
1101.76111111111,-0.2,-0.22407583278852,0.020760307481301,0.0593852073039728,0
1101.76388888889,-0.17,-0.214768890964166,0.0235114266564381,0.059384422066699,0
1101.76666666667,-0.175,-0.207460372433093,0.0266389484009871,0.0593830620510994,0
1101.76944444444,-0.17,-0.201907128953998,0.0300500664806814,0.0593813209356062,0
1101.77222222222,-0.16,-0.197357809348182,0.0336174229246559,0.0593797276933047,0
1101.775,-0.135,-0.192551634144791,0.0371833573076725,0.0593785085181212,0
1101.77777777778,-0.13,-0.185764738290939,0.0405667116296552,0.0593773993644811,0
1101.78055555556,-0.125,-0.174905190614599,0.0435719283717153,0.0593760696986087,0
1101.78333333333,-0.11,-0.157653718040096,0.0459999976728502,0.0593741335765984,0
1101.78611111111,-0.11,-0.131642998344271,0.0474326244406092,0.05937208875042,0
1101.78888888889,-0.095,-0.0946644904989299,0.047671755723891,0.0593805425939553,0
1101.79166666667,-0.08,-0.044888499091898,0.0480186106254778,0.0594021514027026,0
1101.79444444444,-0.055,0.0189191596151108,0.0495266571305855,0.0594392008290942,0
1101.79722222222,-0.025,0.0972016474728608,0.0522315163766215,0.0594934885084216,0
1101.8,0.005,0.189454255565771,0.0561079591477825,0.0595661587423572,0
1101.80277777778,0.06,0.294122026762655,0.0610666875860312,0.0596575542289091,0
1101.80555555556,0.12,0.408564572604572,0.0669548389589638,0.059767105175398,0
1101.80833333333,0.18,0.529096499554583,0.0735603912585248,0.0598932247229858,0
1101.81111111111,0.24,0.651106612852558,0.0806204005583309,0.0600332628999426,0
1101.81388888889,0.295,0.769253254336854,0.0878327439452845,0.0601836520211088,0
1101.81666666667,0.355,0.877727192044538,0.0948707971795619,0.060340036912629,0
1101.81944444444,0.405,0.970567883254376,0.101400260575901,0.0604975513624659,0
1101.82222222222,0.475,1.04201414069451,0.107097176025445,0.0606515711134332,0
1101.825,0.555,1.08686665973749,0.111666065986015,0.060806698328475,0
1101.82777777778,0.65,1.10083784624155,0.114857081296171,0.0609672455559853,1
1101.83055555556,0.73,1.08086414132661,0.116481073877569,0.0611370631258115,0
1101.83333333333,0.755,1.02535765720786,0.116421612773214,0.0613192289969815,0
1101.83611111111,0.71,0.934377357591454,0.114643132318166,0.0615161341363,0
1101.83888888889,0.545,0.809705031786048,0.112692842970504,0.0617294619571444,0
1101.84166666667,0.28,0.654817585276721,0.111316625269873,0.0619602610205966,0
1101.84444444444,-0.115,0.474754253637324,0.110411568192581,0.0622089840478081,0
1101.84722222222,-0.58,0.27588471841898,0.109882293904437,0.0624755587873178,0
1101.85,-1.02,0.0655912052455078,0.10965241407768,0.062759511402153,0
1101.85277777778,-1.415,-0.14811607258196,0.109673638333799,0.063060105974743,0
1101.85555555556,-1.695,-0.357025791579397,0.109931688871404,0.0633742083880494,0
1101.85833333333,-1.915,-0.55316712592707,0.110448451493558,0.0636954416761201,0
1101.86111111111,-2.045,-0.729237221640193,0.111280121927654,0.0640170956460993,0
1101.86388888889,-2.135,-0.878986503071222,0.112511459856174,0.0643324082451231,0
1101.86666666667,-2.205,-0.997536666761586,0.114246611285862,0.0646348844011846,0
1101.86944444444,-2.245,-1.08161095946746,0.116597272706739,0.0649237104082343,0
1101.87222222222,-2.265,-1.12966257884821,0.118291723665899,0.065198761110366,0
1101.875,-2.265,-1.14189430435881,0.118342864249294,0.0654596541317635,0
1101.87777777778,-2.245,-1.12017020758325,0.116807754316028,0.065705982984642,0
1101.88055555556,-2.18,-1.06782791280865,0.11381823163727,0.0659374465949902,0
1101.88333333333,-2.105,-0.989406796853227,0.109570991910287,0.0661539956343319,0
1101.88611111111,-2.01,-0.890313205367489,0.104314328455995,0.0663559763676589,0
1101.88888888889,-1.91,-0.776447793393417,0.0983324539258156,0.0665442573464792,0
1101.89166666667,-1.79,-0.653822176668012,0.0919284542701298,0.0667203487044422,0
1101.89444444444,-1.675,-0.528192069593168,0.0854069791043573,0.0668865635691563,0
1101.89722222222,-1.575,-0.404732015843002,0.079057750344157,0.0670458786294897,0
1101.9,-1.485,-0.287772882044401,0.0731408759905271,0.067201779152617,0
1101.90277777778,-1.42,-0.180617824677184,0.067874796837364,0.0673576207344485,0
1101.90555555556,-1.355,-0.085445914173229,0.0634274837147159,0.067508799866552,0
1101.90833333333,-1.305,-0.00330554646375789,0.0599112581378813,0.0676507887908217,0
1101.91111111111,-1.225,0.0658072362668332,0.0573813484752918,0.0677791095608746,0
1101.91388888889,-1.155,0.122796797304031,0.0558380362119284,0.06788956884206,0
1101.91666666667,-1.045,0.169258908855725,0.0556004941380447,0.0679795232725403,0
1101.91944444444,-0.935,0.207235076977151,0.0553601498282526,0.0680478985429413,0
1101.92222222222,-0.82,0.238952571403983,0.0543960729203867,0.0680946649526423,0
1101.925,-0.715,0.266572662868917,0.0528516424756291,0.0681209153699508,0
1101.92777777778,-0.63,0.291967836712048,0.0508797510197511,0.0681286062848592,0
1101.93055555556,-0.58,0.316545359870632,0.0486321239280692,0.0681203716190125,0
1101.93333333333,-0.56,0.341129857890698,0.046249891309772,0.0680993145790579,0
1101.93611111111,-0.54,0.365911942842324,0.0438559748567764,0.068073091367355,0
1101.93888888889,-0.51,0.390463920934729,0.0415496763425188,0.0680478461811422,0
1101.94166666667,-0.455,0.413817721206124,0.0394036600042777,0.0680229861471309,0
1101.94444444444,-0.37,0.434594922080359,0.0374633238813298,0.0679979313725382,0
1101.94722222222,-0.26,0.45117454404252,0.0357483708052836,0.0679722524395577,0
1101.95,-0.16,0.461881456533295,0.0342562319623101,0.0679465329150933,0
1101.95277777778,-0.035,0.465177020276513,0.0329668758624009,0.0679214350597974,0
1101.95555555556,0.06,0.45983401490854,0.0318484607416375,0.0678974592721983,0
1101.95833333333,0.13,0.445079903116951,0.030863262485474,0.0678747259855048,0
1101.96111111111,0.19,0.420695838670462,0.0299733325639676,0.0678532812635455,0
1101.96388888889,0.21,0.387063205613009,0.0291454067609426,0.0678331099403497,0
1101.96666666667,0.235,0.345154466347733,0.0283546878014678,0.0678141507198053,0
1101.96944444444,0.235,0.296470240032435,0.0275872528565819,0.0677963125759072,0
1101.97222222222,0.24,0.242929369237649,0.0268409782013813,0.0677794688372149,0
1101.975,0.255,0.186722839299677,0.0261250153183955,0.0677633644848343,0
1101.97777777778,0.265,0.130145442462982,0.0254579832809139,0.0677477718904273,0
1101.98055555556,0.295,0.075420782473372,0.0248651506474731,0.0677324950464989,0
1101.98333333333,0.315,0.0245354726716447,0.0243749580380208,0.0677172240537654,0
1101.98611111111,0.34,-0.0209027986269699,0.0240152747101511,0.0677019403059922,0
1101.98888888889,0.35,-0.0597711398902094,0.023809786793662,0.0676866761431714,0
1101.99166666667,0.36,-0.0914925957234339,0.0237748827211042,0.0676714800694038,0
1101.99444444444,0.375,-0.116048118258492,0.0239173372798985,0.0676564207483445,0
1101.99722222222,0.39,-0.133939480381445,0.0238645235672301,0.0676417595745405,0
1102,0.41,-0.146107680779187,0.0233908880263801,0.0676279081667229,0
1102.00277777778,0.43,-0.153815326918293,0.0227847112198019,0.0676150460669272,0
1102.00555555556,0.45,-0.158504568558458,0.0220796597963117,0.0676031861211347,0
1102.00833333333,0.465,-0.161644128999897,0.0213149047363012,0.0675923103922328,0
1102.01111111111,0.48,-0.164579687157664,0.0205318541492806,0.0675823699854747,0
1102.01388888889,0.495,-0.168401261571141,0.0197706733554653,0.0675732821632158,0
1102.01666666667,0.51,-0.173839417435803,0.0190669225272355,0.0675649305209164,0
1102.01944444444,0.525,-0.181199249158424,0.0184486247623213,0.0675571682411322,0
1102.02222222222,0.545,-0.190337463755702,0.0179340318975979,0.0675498242066465,0
1102.025,0.545,-0.200683848121714,0.0175302865767477,0.0675427115390163,0
1102.02777777778,0.56,-0.211304320505692,0.0172330939046996,0.0675357419498582,0
1102.03055555556,0.58,-0.220999014892293,0.0170274225599932,0.0675290109936731,0
1102.03333333333,0.595,-0.228425760840543,0.0168891620949931,0.0675226512977636,0
1102.03611111111,0.62,-0.232237168541133,0.0167875786555095,0.0675168720237232,0
1102.03888888889,0.655,-0.231218487434194,0.0166883428084197,0.0675121467812324,0
1102.04166666667,0.68,-0.224413550378471,0.0165568562620199,0.0675088297718064,0
1102.04444444444,0.705,-0.211227408602237,0.0163615825975999,0.0675069556595799,0
1102.04722222222,0.725,-0.191496566077263,0.0163226772623842,0.0675065080513472,0
1102.05,0.74,-0.165520806785564,0.0164966879839662,0.0675074214965426,0
1102.05277777778,0.75,-0.13405417901142,0.0167972832756855,0.0675095832733564,0
1102.05555555556,0.76,-0.0982564230921144,0.0171445598054795,0.0675128411722195,0
1102.05833333333,0.775,-0.0596096614379288,0.0174722989727059,0.0675170151256179,0
1102.06111111111,0.8,-0.0198081945252991,0.0177335466705103,0.0675219276911976,0
1102.06388888889,0.815,0.0193685009717737,0.0179040477578201,0.0675275791478492,0
1102.06666666667,0.83,0.0561881847809941,0.017983278354074,0.067533939043487,0
1102.06944444444,0.85,0.0890920570477474,0.0179930499023646,0.0675409392513831,0
1102.07222222222,0.875,0.116803959395968,0.0179738872953875,0.0675484724375017,0
1102.075,0.885,0.138413562186002,0.017979588120415,0.0675563946550286,0
1102.07777777778,0.89,0.153427084743351,0.0180705327123425,0.0675645343550457,0
1102.08055555556,0.89,0.161782175295499,0.0182361670263311,0.0675727115459558,0
1102.08333333333,0.89,0.163826885166425,0.0181995923453619,0.0675810208531311,0
1102.08611111111,0.89,0.160265898247517,0.0179575905483147,0.0675896016406626,0
1102.08888888889,0.88,0.152080026880198,0.0175177577346221,0.0675986235097031,0
1102.09166666667,0.87,0.140427205262571,0.0168977298294923,0.0676082698682512,0
1102.09444444444,0.855,0.126534611485068,0.0161237438178317,0.0676187214673398,0
1102.09722222222,0.84,0.11159201977084,0.0152286829988913,0.0676301387058777,0
1102.1,0.83,0.0966560048118929,0.0142497883707222,0.0676426446785236,0
1102.10277777778,0.805,0.0825732586826292,0.0132262343958782,0.0676563080211678,0
1102.10555555556,0.795,0.0699291870252545,0.0121967654019748,0.0676711280214665,0
1102.10833333333,0.76,0.059025339740849,0.011197569839754,0.0676868282726143,0
1102.11111111111,0.735,0.049886360956585,0.0102605361699083,0.0677027889333115,0
1102.11388888889,0.7,0.0422942910825363,0.00941199009639591,0.0677191317542537,0
1102.11666666667,0.66,0.0358454902160514,0.00867196283075557,0.0677361491900185,0
1102.11944444444,0.615,0.0300234140034409,0.00825452128941595,0.0677539377693263,0
1102.12222222222,0.58,0.0242791426958264,0.00816691141017198,0.067772688582422,0
1102.125,0.545,0.0181110530339593,0.00838335784684176,0.0677913764891212,0
1102.12777777778,0.505,0.0111353621060708,0.00861249994081012,0.0677982939008495,0
1102.13055555556,0.46,0.00314041206313651,0.00871964460613926,0.0677907967458545,0
1102.13333333333,0.43,-0.00588062137284883,0.00871349659935019,0.0677666279165421,0
1102.13611111111,0.395,-0.0157216135428824,0.00860413029252955,0.0677241156980654,0
1102.13888888889,0.365,-0.0259804309801666,0.00840217028846889,0.0676623523863063,0
1102.14166666667,0.335,-0.036098832622318,0.00811822774509613,0.067581338791437,0
1102.14444444444,0.31,-0.0454209272961938,0.00776261699852851,0.0674820818864957,0
1102.14722222222,0.26,-0.0532639398010117,0.00734533992366356,0.0673666354389008,0
1102.15,0.23,-0.0589938356422392,0.00706239850516715,0.0672380690973542,0
1102.15277777778,0.19,-0.0620979018585995,0.00694279952246813,0.0671001744143398,0
1102.15555555556,0.145,-0.0622467139450639,0.0069607054982957,0.0669575741365777,0
1102.15833333333,0.115,-0.0593389960865637,0.00707643361278898,0.0668155242817843,0
1102.16111111111,0.08,-0.0535245920324907,0.00724122300547627,0.0666706460779933,0
1102.16388888889,0.065,-0.0452029354981417,0.00740273577953253,0.0665183650295536,0
1102.16666666667,0.035,-0.0349968278541509,0.00751074570465021,0.0663548553887356,0
1102.16944444444,0.02,-0.023703761192287,0.00752246084292077,0.066177141761583,0
1102.17222222222,0,-0.0122292317715435,0.00740697125995254,0.0659830521767185,0
1102.175,-0.005,-0.00150826089183913,0.00714840561019928,0.0657710757557754,0
1102.17777777778,-0.03,0.00757749070462977,0.00687061086167188,0.0655404496334473,0
1102.18055555556,-0.04,0.014279171905767,0.00668908882834353,0.0652910377590945,0
1102.18333333333,-0.05,0.0180492063845698,0.00661039951335543,0.0650231726883508,0
1102.18611111111,-0.065,0.0185922428708608,0.00663640378300714,0.0647374774321781,0
1102.18888888889,-0.085,0.0158936967228511,0.00676378227596638,0.0644346844946302,0
1102.19166666667,-0.095,0.0102230884368588,0.00698391068222114,0.0641154689834801,0
1102.19444444444,-0.105,0.00211174526381065,0.00728313182995159,0.0637853747027838,0
1102.19722222222,-0.125,-0.00769317092297949,0.00764342905813446,0.0634510882111491,0
1102.2,-0.115,-0.0182941395235216,0.00784293539307431,0.0631198094378853,0
1102.20277777778,-0.11,-0.0287222812787674,0.00785840977391461,0.0627986437754482,0
1102.20555555556,-0.105,-0.0380226587690473,0.00769365002768011,0.0624941388726286,0
1102.20833333333,-0.105,-0.045338088706782,0.00736904070119381,0.0622077605623438,0
1102.21111111111,-0.11,-0.0499838408436377,0.0070394873670706,0.0619404308054329,0
1102.21388888889,-0.115,-0.0515064704367785,0.00677533116061071,0.0616929210377181,0
1102.21666666667,-0.115,-0.0497215259740395,0.00658705493567696,0.0614656768291335,0
1102.21944444444,-0.13,-0.0447268475032773,0.00647925297183283,0.061258651155879,0
1102.22222222222,-0.13,-0.036890435995781,0.00645040846024991,0.0610711621755893,0
1102.225,-0.14,-0.0268142175020058,0.00649315211619528,0.0609017895702942,0
1102.22777777778,-0.15,-0.0152772287013698,0.00659498304991036,0.0607483200790372,0
1102.23055555556,-0.145,-0.00316360907875428,0.00655328631757751,0.060607757652765,0
1102.23333333333,-0.135,0.00861787042178927,0.00638537975938026,0.0604765901817176,0
1102.23611111111,-0.125,0.0192153021255569,0.00621401114893203,0.0603506444368744,0
1102.23888888889,-0.115,0.0279087036973127,0.00605849470080995,0.0602252372699372,0
1102.24166666667,-0.115,0.0341718647957544,0.00593584189313951,0.0601043890827845,0
1102.24444444444,-0.115,0.0377154886893029,0.00585940238571615,0.0599933235269694,0
1102.24722222222,-0.125,0.0385079258651911,0.00583784088292813,0.0598964547083592,0
1102.25,-0.13,0.0367719058929005,0.00587453245935775,0.0598172121805364,0
1102.25277777778,-0.13,0.0329579064594937,0.00596742151318452,0.0597580125838116,0
1102.25555555556,-0.13,0.0276969461028681,0.00610934837300527,0.059720328897435,0
1102.25833333333,-0.135,0.021737451457879,0.00616570677586718,0.0597045369281939,0
1102.26111111111,-0.145,0.0158722610926464,0.00602349466438784,0.0597099828440594,0
1102.26388888889,-0.145,0.010862660591428,0.00581506692935128,0.0597336510679484,0
1102.26666666667,-0.145,0.00736652702739948,0.00561745317160517,0.059754121280738,0
1102.26944444444,-0.13,0.00587718611704263,0.00544655035779392,0.0597718779277814,0
1102.27222222222,-0.125,0.00667850421531463,0.00531582272840121,0.0597874835094895,0
1102.275,-0.13,0.00982015768536428,0.00523522387587032,0.0598015481102932,0
1102.27777777778,-0.135,0.0151150968766139,0.00521046848484707,0.0598146990651601,0
1102.28055555556,-0.15,0.0221591340547135,0.00524271133917041,0.0598275521548799,0
1102.28333333333,-0.155,0.0303705300946819,0.00532865282913021,0.0598406855298806,0
1102.28611111111,-0.175,0.039045624004109,0.00546105055095278,0.0598543377932848,0
1102.28888888889,-0.185,0.0474251096583028,0.00562957934462433,0.0598679977289044,0
1102.29166666667,-0.2,0.0547646443561347,0.00570222516971586,0.059881154932795,0
1102.29444444444,-0.2,0.0604031528840773,0.00564241962361949,0.0598934117149731,0
1102.29722222222,-0.195,0.0638224910298118,0.00548129028653808,0.0599044948075886,0
1102.3,-0.185,0.0646930182676729,0.00529173512716196,0.0599142579511055,0
1102.30277777778,-0.2,0.0629010110762367,0.00512216687221012,0.0599226758717904,0
1102.30555555556,-0.18,0.0585555915570986,0.00497699964075993,0.0599298312231027,0
1102.30833333333,-0.175,0.051974784356989,0.00485690831077783,0.0599358952212559,0
1102.31111111111,-0.175,0.0436522659867622,0.00485219155835569,0.0599411036349362,0
1102.31388888889,-0.175,0.0342081532096143,0.00493426918025748,0.0599457298909268,0
1102.31666666667,-0.165,0.0243286278455209,0.00500901039945055,0.0599500561823552,0
1102.31944444444,-0.17,0.0147001834983883,0.00508636748530817,0.0599543464912234,0
1102.32222222222,-0.2,0.00594471919111238,0.00517648290594294,0.0599588228367107,0
1102.325,-0.19,-0.00143843863529055,0.00528848406166454,0.0599636447461309,0
1102.32777777778,-0.2,-0.00711821082765395,0.00542937230567518,0.0599688942785321,0
1102.33055555556,-0.19,-0.0109609597275988,0.00560311675723971,0.0599745675841968,0
1102.33333333333,-0.2,-0.013040598324211,0.00581004341267173,0.059980585552581,0
1102.33611111111,-0.195,-0.0136288079054756,0.00604658132558592,0.0599868404081596,0
1102.33888888889,-0.205,-0.013166412882394,0.0063053928867775,0.0599932606173872,0
1102.34166666667,-0.19,-0.0122187019107647,0.00657587778780233,0.0599997378137455,0
1102.34444444444,-0.18,-0.0114189511216019,0.00672141696837636,0.0600061410130235,0
1102.34722222222,-0.185,-0.0114054661270543,0.00667511345303022,0.0600123338898727,0
1102.35,-0.205,-0.0127580212171692,0.00645199667566272,0.0600181958267166,0
1102.35277777778,-0.205,-0.0159395903505931,0.0062725479915908,0.0600236420716744,0
1102.35555555556,-0.21,-0.0212487391772417,0.00614790830575107,0.0600286419887232,0
1102.35833333333,-0.2,-0.0287870338583624,0.00608601701784625,0.0600332328184412,0
1102.36111111111,-0.22,-0.0384444182348703,0.00609097892155712,0.0600375314604613,0
1102.36388888889,-0.22,-0.049903847790765,0.00616280105277719,0.0600417410005877,0
1102.36666666667,-0.225,-0.0626647007765007,0.00629752852797415,0.0600464709257975,0
1102.36944444444,-0.225,-0.0760827755260659,0.00648776909063875,0.0600514625477008,0
1102.37222222222,-0.22,-0.0894231832314262,0.00672355703563513,0.0600563598325202,0
1102.375,-0.2,-0.10192129123388,0.00699347216502811,0.0600607254952321,0
1102.37777777778,-0.2,-0.112846164654171,0.00728590189182796,0.0600640705482244,0
1102.38055555556,-0.21,-0.121560754021752,0.00755842805061574,0.0600687753957102,0
1102.38333333333,-0.21,-0.127573397449835,0.00780118073195039,0.0600882917683973,0
1102.38611111111,-0.215,-0.130576015023935,0.00805269427534116,0.0601248785936871,0
1102.38888888889,-0.225,-0.130465594367483,0.00835555670011119,0.0601801552920733,0
1102.39166666667,-0.22,-0.127347087835342,0.00865887796718268,0.0602549114501193,0
1102.39444444444,-0.22,-0.121517525947546,0.00896764272041367,0.0603489553958842,0
1102.39722222222,-0.215,-0.113432847932693,0.00929049677686933,0.0604610159112031,0
1102.4,-0.215,-0.103660508377945,0.00963764571845687,0.0605887076143575,0
1102.40277777778,-0.21,-0.092822202265287,0.0100193888923985,0.0607285670007722,0
1102.40555555556,-0.215,-0.081531947658172,0.0104444919821696,0.0608761614931959,0
1102.40833333333,-0.205,-0.0703351991485352,0.0109185548534488,0.0610262689664399,0
1102.41111111111,-0.2,-0.0596545998436954,0.0114425411974895,0.0611788776080928,0
1102.41388888889,-0.2,-0.0497474224946867,0.0120116310960583,0.0613394790917584,0
1102.41666666667,-0.19,-0.0406787508362266,0.012614536850493,0.0615127249915737,0
1102.41944444444,-0.19,-0.0323130972082994,0.0132333874671905,0.0617021723646253,0
1102.42222222222,-0.18,-0.0243255584779652,0.0138442406084634,0.0619102571646048,0
1102.425,-0.17,-0.0162319149304699,0.0144182262792585,0.0621382730216445,0
1102.42777777778,-0.145,-0.00743541961759134,0.0149232685641683,0.0623864374853658,0
1102.43055555556,-0.135,0.00271345221759662,0.0153186601681587,0.0626540372461503,0
1102.43333333333,-0.11,0.0148491991947193,0.0153729519941207,0.0629396355638754,0
1102.43611111111,-0.09,0.0295211156585819,0.0152647558362608,0.0632413221526688,0
1102.43888888889,-0.07,0.0471267296457412,0.015338655099832,0.0635569827020583,0
1102.44166666667,-0.055,0.0678546660665563,0.0156068277403971,0.0638845639305314,0
1102.44444444444,-0.05,0.0916420852258117,0.0160710818216621,0.0642223103895903,0
1102.44722222222,-0.05,0.118150761478645,0.0167219599835657,0.064568853242251,0
1102.45,-0.04,0.146764440205391,0.0175386908112275,0.0649163772789984,0
1102.45277777778,-0.025,0.176608454969245,0.0184900469313583,0.0652569845188257,0
1102.45555555556,-0.01,0.206590829850306,0.0195360956708293,0.0655882658557023,0
1102.45833333333,0.02,0.235462371154824,0.0206307510570443,0.0659091270932802,0
1102.46111111111,0.05,0.261891701619322,0.0217249621920264,0.0662181755708565,0
1102.46388888889,0.08,0.284549929500461,0.02277030899279,0.0665138808156063,0
1102.46666666667,0.095,0.302198773336944,0.0237227278618353,0.0667948182260741,0
1102.46944444444,0.09,0.31377555050912,0.0245460619274459,0.0670599185928645,0
1102.47222222222,0.07,0.318468519994158,0.0252151265123765,0.0673087023203585,0
1102.475,0.045,0.3157766466843,0.0257180020876291,0.0675414759936717,0
1102.47777777778,0.035,0.30554889002588,0.0260573137644319,0.0677594723617871,0
1102.48055555556,0.015,0.287999543894746,0.0262503259135545,0.0679649196209035,0
1102.48333333333,0.03,0.263697869425403,0.0263277683441964,0.0681610331321158,0
1102.48611111111,0.03,0.233532148123084,0.0263314104849053,0.0683519271815988,0
1102.48888888889,0.035,0.198650205611255,0.0263105047526723,0.0685424515560705,0
1102.49166666667,0.03,0.160380278822621,0.0263173215802234,0.0687322063140059,0
1102.49444444444,-0.005,0.120137688028953,0.026402088059275,0.0689152533109483,0
1102.49722222222,-0.02,0.0793240101702571,0.0266077120238641,0.0690864411641617,0
1102.5,-0.045,0.0392262336278511,0.0269647169700241,0.0692416383545212,0
1102.50277777778,-0.065,0.000923637675371629,0.0274868255442227,0.0693778922884183,0
1102.50555555556,-0.1,-0.0347901530744365,0.0281676076900271,0.0694935109333953,0
1102.50833333333,-0.125,-0.0674633362900243,0.0289785536926637,0.0695880629487881,0
1102.51111111111,-0.14,-0.0970150810882,0.0298688447269592,0.0696623016245306,0
1102.51388888889,-0.165,-0.123734219747646,0.0307669791040746,0.0697180216630434,0
1102.51666666667,-0.195,-0.14824617483879,0.0313986321195072,0.069757861961523,0
1102.51944444444,-0.23,-0.171449141150506,0.0313291458095938,0.0697845691851312,0
1102.52222222222,-0.245,-0.194422908059936,0.0309804280666469,0.0697860274283976,0
1102.525,-0.26,-0.218315949299747,0.0310218878302586,0.069772954262499,0
1102.52777777778,-0.265,-0.244218359317824,0.0315453722518764,0.0697447670614659,0
1102.53055555556,-0.275,-0.273029726043554,0.032623095667931,0.0697017270353115,0
1102.53333333333,-0.28,-0.305331968699905,0.0342998014290406,0.0696450304658993,0
1102.53611111111,-0.28,-0.341277438554047,0.0365861712664354,0.0695777044120559,0
1102.53888888889,-0.275,-0.380502123297207,0.039454057611907,0.0695048053145094,0
1102.54166666667,-0.27,-0.422072602413463,0.0428340200939278,0.069432029888553,0
1102.54444444444,-0.255,-0.464473512522932,0.0466155130295716,0.0693589957124242,0
1102.54722222222,-0.27,-0.505639790435876,0.0506499039120624,0.0692805462736468,0
1102.55,-0.27,-0.543035007602619,0.0547563141687917,0.0691912883298441,0
1102.55277777778,-0.285,-0.573773874024004,0.0587300754006947,0.0690858793154645,0
1102.55555555556,-0.285,-0.594783684781409,0.0623534006903994,0.0689593308219643,0
1102.55833333333,-0.28,-0.60299633845234,0.0654076954144659,0.0688073100375739,0
1102.56111111111,-0.295,-0.595559806866665,0.0676867885818814,0.0686264198118462,0
1102.56388888889,-0.3,-0.570055799252583,0.0690102655567248,0.0684144404095467,0
1102.56666666667,-0.29,-0.524709029723349,0.0692360349606078,0.0681705158195963,0
1102.56944444444,-0.28,-0.458573108145934,0.0684144247649235,0.0678952720000468,0
1102.57222222222,-0.25,-0.371678714285123,0.0686177565076508,0.0675908553039294,0
1102.575,-0.175,-0.265131398207006,0.0697776734896544,0.0672608874488021,0
1102.57777777778,-0.065,-0.141149016329633,0.0717903038746256,0.0669103367439385,0
1102.58055555556,0.09,-0.00303232780862513,0.0745241975734244,0.0665453106646356,0
1102.58333333333,0.285,0.144933563277525,0.0778298092982383,0.0661727798861177,0
1102.58611111111,0.49,0.297644689619567,0.0815498450383195,0.0658002492911883,0
1102.58888888889,0.67,0.449403770280303,0.0855297171109631,0.0654353916326289,0
